-4.350782125723796
-4.269451009576955
-5.054409834999362
-4.9934973980235515
-4.931563184778223
-4.9293148427675515
-5.768769300363051
-6.599615415523012
-7.428986093950805
-8.196152106154052
-8.121228834026123
-7.133339435175258
-6.21660158470188
-5.295108075480204
-6.144361637059519
-6.0711059158481415
-6.003058924038884
-5.090116806450665
-3.2633309623260036
-1.2224492502127087
1.1032463967773296
1.9432696362779722
2.7812591017990553
4.530529956570031
5.412501029722994
7.992844759267038
8.796977498009252
10.462493586033641
11.21983225247879
9.36147808726375
9.284961204208324
8.354339668792672
7.42078660674327
8.263814831586446
7.269794823050078
8.062783057310606
7.0891531131465575
5.263422597385637
5.2742836589176445
4.351627178358541
4.341944722384353
5.182720009790628
5.1080148112679815
5.045972111132858
3.2182818051040107
2.313108051915291
2.321121935455949
2.318909361679131
3.1643328807136997
4.010962487084428
3.942481193120709
3.0277315026363105
2.113780725809886
2.116398030965482
2.1116343342713604
2.040226296724717
2.9516578374883515
2.8866085211128345
1.9767336920735572
1.0689096274047358
0.005683445788868204
0.0
0.0
0.007232765469122299
0.05817478364433032
-2.3845399673194967
-4.990872563150447
-8.379691946440369
-13.475256269795729
-20.202004105047823
-29.537456874160636
-42.25155592327876
-61.74613430059977
-86.30411548380182
-112.36374224030581
-139.198833485314
-163.25298399956878
-179.4127639523541
-180.80490028508282
-167.55102893674018
-146.433401319513
-99.77869695279107
-15.934391827149865
34.96223615707896
101.30240283595988
156.96857736650523
197.40789434306208
218.90216548575623
222.4075548153811
218.16306137457767
200.75352500851838
157.25910965462782
110.53822466486945
73.09065804424819
45.992566402971335
27.213105800680584
13.750577427824897
4.854737001915028
0.7448635847086182
0.0
-0.7655079814835433
-1.7393750421672607
-2.6606383210248707
-4.442001388042875
-5.306791557215027
-4.401721123169004
-4.349782899206617
-3.5045082691782246
-3.500293616270598
-3.483529166940862
-4.380963217620868
-5.212080869224785
-5.131435068720082
-4.2054540406793794
-4.203788007570536
-2.422097775417559
-3.330778233058819
-3.311823637943173
-3.2942642479611477
-4.137221040987651
-4.067933487777075
-3.1503660352467477
-3.1509826870321764
-3.1408557976241642
-4.04242882970252
-4.01673410165214
-4.846122928939746
-5.682025393587111
-4.751462657600904
-3.8261678094461637
-2.96765243379112
-2.957717488004333
-2.9445050778566784
-3.784788717736511
-4.630171210894301
-3.707968161121473
-2.78970943430699
-2.788934527385192
-1.9218373442842964
-2.7980480848265
-3.657968600582849
-3.6435908770246423
-3.571355687176726
-2.6524451814829777
-2.654167726770567
-1.7957073026148658
-1.7823093557490848
-3.538708133441881
-3.521495338415111
-3.443253488346064
-3.4405426475307848
-1.6647522917467759
-0.565329427744318
-0.59708830497515
-1.591720200718216
-2.55034379118207
-1.6263873463346121
-2.4853874274781615
-0.7163189379637623
0.1378307097204414
-0.6563112854897866
-0.4425163764612557
-1.6516093231774474
-2.495058360509134
-1.5728471291458077
-1.5788562990123725
0.14313213028154723
0.13233397881062486
-0.5328006932309873
-0.6250095928392914
-1.639366409869757
-1.5854825217290944
0.07272251111636749
0.053704080125026164
1.0270226417603228
0.1152539365460723
-1.6428043221697497
-1.625633226946496
-2.466664286505046
-2.4593349640361586
-1.5302750437735324
-1.5865736048051844
-1.5563249632222418
-2.4646117059991863
-4.153805445514403
-4.0752128481066086
-4.925297785936938
-4.000566906119581
-4.845606011572753
-4.824440783020535
-5.714202194042792
-5.679221440293293
-6.507843322125758
-5.507745128647566
-4.588400463234112
-4.525412330310408
-3.6759952227058363
-2.753869257559544
-2.748774615537844
-3.592691665872568
-3.584907922831912
-2.661851778250119
-1.7444535446478053
-1.7500602051436904
0.024401221875164688
-0.718950466018392
-1.7381360219944317
-2.5871470664409957
-1.664695081066974
-1.6649118301939105
-1.661362980412367
-1.6524702516177616
-1.6365356841875738
-2.5385452259547634
-3.3761741284907156
-3.3022272838970923
-2.3814263767659813
-2.381720892942325
-1.4598103326024805
-1.3978692761853717
-1.3943698318248716
-2.346849309516551
-3.1959560763637134
-2.2780102116524907
-1.3643357154016567
-1.3683128129363287
-0.3456284389297199
-1.2271688275433814
-2.251762348365208
-3.0953953208503586
-2.173706554578016
-1.2584679867505855
-1.2636969533389273
-0.23079323208122493
-0.20802798237184625
-2.1599712731287637
-3.0024370668542484
-2.0795571036665472
-1.1634176420865783
-1.1681357579693377
-1.1662345191413719
-1.1557647680719703
-2.061873383077435
-2.0493070525417223
-1.1254063510241774
-0.2094853273215886
-0.2167286833461146
0.6319716179213862
1.4823981724131712
1.479746659257501
0.595968920329934
0.5040548311970887
-0.23902295129940837
0.5205905831174978
1.4628833991156216
2.321849690860776
1.4132842616565946
0.5069251541059592
0.5140999403366083
0.3179415524280618
0.2786839842424591
2.3260017597463305
2.255013371185157
1.3438430679587763
0.4385822073602296
0.45296378775562685
-0.39371609131560276
-0.3957411462612934
1.3724312942433063
1.368528976230588
1.3065537421376676
0.39810331309124575
0.41065096455902095
0.41664691660363584
-0.4394244017780863
1.3276585844535616
1.3210952901563449
1.253494506697418
1.2616838100094916
0.350894291036197
-0.49234220283845487
-0.48718697008974376
-0.4876399646096097
1.2861824743829784
1.219846859215614
2.0821435660392416
0.3173553113062177
0.3247751753565225
-0.5306118083097129
0.01440145939856944
0.05982464088911906
1.2243068100556025
0.31448111078555374
-0.49154964317460753
-1.424813548132197
-1.4017208533932686
-2.2530361159626344
-1.3345072809579344
-1.337039511815211
-1.3309456029182656
-2.237908341123716
-2.2183392006982148
-3.0541514497138693
-3.8965093183659967
-3.8255562661578675
-2.905545300564917
-2.904396331852907
-3.7496040113182336
-4.588247898590812
-5.422935360549156
-6.259081394265784
-6.179129495106021
-6.104599344380198
-5.175736701925574
-5.163861744416504
-5.149677631054124
-5.07133479568046
-5.000803867291331
-4.084054286890728
-3.173249714955744
-1.2015959814529396
1.203051655463427
2.046632706316104
2.8915999138204103
2.876550229638235
3.7715655110524655
5.510612090609437
7.180155020999407
8.004464281342866
8.774955390948293
6.93042896716692
6.866741069690083
5.091234206776758
5.936615224100286
6.778883736694855
6.706531875424917
6.577599073084333
5.672864195945983
3.846747156246456
3.8586443498683813
2.936861968120651
4.705711443409429
4.6317179158889425
4.56725977442125
3.6593793298128494
1.8335582715360992
1.8468550489937403
1.8261834352238815
1.7510373249340805
2.7001761996330647
2.638222358337199
2.5841124665805504
1.677635416116994
1.6875363958582597
1.6889098171753278
1.649166359923022
1.5656540891522672
2.526416210830911
2.4641437582163683
1.5576531816475219
0.6535717374198722
-0.18616826882963206
-0.1791093966268503
-0.17645951690293354
-0.174177735151034
-0.16611380284488098
-2.7769502530204977
-6.232928554686931
-9.617254299978665
-15.560574616710705
-22.279724544264358
-30.752043048689867
-44.308256790659925
-61.23064928979895
-83.22006436039764
-107.57498901061143
-132.65146700451584
-157.59148835467462
-174.57881419407806
-172.6019122128202
-159.45634352750636
-137.4397776275468
-92.0352384406715
-14.675437454436494
30.687345599629968
92.72915135583075
146.7855524349695
189.10866595419097
207.83769366586844
211.36928426094485
208.07487726066006
190.66895033866854
150.81310631589193
108.65698819933
75.1392994140458
50.63525666282996
31.60628838639838
17.075697089296437
7.191954007860336
2.1514657821035623
0.0
-1.0747042804786846
-2.875725588454397
-2.9241628155489496
-4.692407792399799
-5.548840284675453
-4.638552354851886
-3.7301665998237103
-3.7374917076905376
-2.881406475018291
-2.8699901342104925
-3.7048375921571792
-5.460622172745423
-4.524888223449845
-4.44908334976324
-4.440484924186558
-4.424953342811103
-4.400342225960874
-5.2915873500677915
-6.116772645110526
-6.029771096630756
-5.950569966755084
-5.942929984497564
-4.1586751504273245
-4.146119283086674
-4.12809333468643
-4.108377478489958
-4.947054367169256
-4.020349879075398
-3.9565236917927713
-3.039957324592089
-2.1829329942321762
-3.0898691871306587
-3.9217413735674884
-4.753423751022793
-5.589064457997341
-4.654401925314768
-4.645597101075381
-3.7132696527403106
-2.8417655775980033
-3.7017551642484614
-4.573692468989589
-4.495673215344542
-4.428795056894996
-2.6586306076745525
-2.6599109447142886
-2.652343991784275
-1.6398590645866158
-3.5339366789226627
-4.368306149153305
-4.292270152918831
-3.3722062436943396
-1.5977331469683451
-2.5123927321913304
-2.495877593280569
-2.47427807336174
-4.229615189155917
-4.150284230371014
-3.229107045496675
-2.3107132102104195
-1.4534809111042999
-2.3440101204033454
-2.3318052418098074
-2.323947916039864
-3.167239518971261
-2.2454831974005964
-1.3299677889362433
-1.3339012306634261
-0.38840528784467054
-1.2960366791066353
-1.3278311208164195
-2.2066204520015376
-2.199158958166914
-2.1288879806789707
-1.2747891513621292
-1.26972393246889
-1.257305189283689
-2.1605902701810167
-2.9944570766223477
-3.8343629961884798
-3.758538635420265
-3.754481149580269
-2.8241355950153055
-3.7299709425214096
-3.7066848448443
-5.389585188570099
-6.223475769654273
-6.143801582129479
-5.218092828848122
-4.292528235718318
-4.282613790133074
-4.26500263427219
-5.098499468360402
-5.939020095895679
-4.094484630717582
-3.1816405080929657
-2.2686322684438087
-2.2713334529719527
-2.266216416168327
-2.2573386424249717
-3.104542226557372
-3.0362970926607344
-2.118324319594295
-2.1195967625693504
-1.1683922104819695
-1.106474057407796
-1.102598354371599
-2.0835167349925396
-2.079292379298199
-2.0156684172136563
-1.1033453662673096
-1.1089547301215954
-0.11931266462456411
-0.9840696943572402
-1.9964342379294562
-2.8389486761215483
-2.7662873199553055
-2.767838606248289
-0.9947324944849442
-0.9513808834177147
0.0
-0.6678015102784645
-1.8785191611925336
-1.812352662651089
-1.7580592443568646
0.0
-0.007294840775254774
-0.9238170229115213
-0.8887643225830487
-2.6605967805345436
-3.497260965220256
-3.423825360745711
-1.6528895984717955
-0.7346013991574994
-0.478073602622852
-0.4644596454916394
-0.5111973278179494
-1.6300453320355113
-0.7170490693061401
-0.6668215626310741
1.0332472259790215
0.1632711712071308
1.0225936015863728
0.11317369068187746
-0.7275881406099753
-0.7225274605912937
0.09620197121834193
0.11079724496496851
1.0467179311508092
1.0282701611180425
1.0349942169165427
-0.7306334678571592
-0.7241853350189966
-0.656088833594834
-0.6594411817306898
0.19272458532487655
1.048433357199467
1.0558183516194772
0.14376631931977066
-0.7045021646375171
0.06669267111345217
0.06460371673322474
1.0004803370314008
1.9534561425200765
1.889632484621734
0.9798453063083757
0.13667004029858273
0.08034070389396453
0.0
1.0050733750805256
1.8883952434647988
2.7420777596762838
1.8293515395581277
0.06656047178079395
0.028402072881735085
0.8972745023174048
0.8847265766227022
1.8068530578788544
1.8161333516401494
0.9064541212283284
0.0011344873737472345
-0.8415224432551734
-0.7712545740684383
-1.6273186009771494
-0.7747479962128054
-0.7711861053168925
-0.7599780621238994
-2.517409912400064
-3.3515234817651787
-4.192533355302067
-4.974730313585106
-4.05607820842882
-3.9859621859217755
-4.894521882712739
-5.724643139315784
-6.554514340974253
-7.322105655797618
-7.245463870596726
-7.177335201423241
-5.3367446521115856
-5.337315370726434
-5.26299192285452
-6.961769629043844
-6.8873838788643535
-6.821423082959169
-5.840583599022183
-4.929277109250108
-3.0955108847411896
-2.90943597915824
-1.6615558082776012
-0.7940694851549529
0.4448024904127705
2.1859469976873944
3.9200531459089123
6.506930569884448
7.325072833802545
7.2299636260017675
7.209108992864807
7.120171719786809
7.0978659490527605
7.075772865818081
6.992671813371441
7.775776404711995
5.940548506470892
5.031893997633414
4.119881567951219
4.124229203095201
4.053889838132022
4.901241865005416
5.748676805032433
5.681169469887326
3.842843325589513
3.844240499512418
3.835963466821623
3.8217856672296007
3.8091481775147695
3.7365428523755098
3.674723509271211
2.7665776157551503
1.8588797962567043
1.8672709817461102
0.7853898401017695
1.862158755413186
2.7085928283770033
3.5587329250533877
2.640389015715381
1.7257960575232771
1.7297441213270612
0.642551229395206
0.6079152215329746
2.627991876404177
1.7044382407272194
1.6467380528023183
-0.08508102331958137
-0.9515422188682721
-2.649981722202644
-5.207480180517117
-6.842621180797254
-10.241313601731505
-17.95353393559769
-27.27621775327096
-40.90568096366764
-56.072880175992594
-77.17583363814141
-101.5702407999237
-126.6768152507221
-154.25503871335818
-176.5562360938124
-178.03840713424614
-165.6498516037323
-145.37062764700715
-104.353528276937
-26.251035816869447
19.446544412484222
82.39017678926872
138.31134309417058
183.38654007110193
204.8405076295783
210.16148247866062
209.43712500953023
194.67159354359237
154.76461511078878
112.6375040010058
77.315975078966
51.41141023028878
32.46681230253
19.25506141712576
10.655029099100194
3.81118917044069
0.5005998511574133
-0.7855943098745859
-2.5249930141470736
-3.382023331929064
-3.403182399510742
-2.572760385579063
-2.5896558863047723
-2.5976352330784365
-2.5977790768351037
-3.447454782491214
-4.2990286088635274
-4.233532150162033
-3.3149710466059754
-2.4561018395375336
-3.361338531912985
-4.191673909857005
-5.022512651360205
-5.859504065242747
-5.784490008093794
-4.8640702573833785
-3.9427281803649703
-3.933312300653401
-3.879489545275332
-4.815409277307925
-4.736801494661141
-4.670245613432131
-3.758337545815319
-2.8472686446611
-2.851809652275637
-2.8463250417847177
-2.8317692705617583
-4.590580117726795
-4.512063219550768
-4.44378595960281
-3.5252577561651024
-3.5246987379915926
-2.6473004538809235
-2.5569951253224565
-3.4893678338074103
-4.333281159935735
-4.264836128989525
-3.351873324017339
-2.4400890497332957
-2.4431319756423657
-1.4329741381719379
-3.3387859220218754
-3.323423663348496
-3.250768978087833
-2.3361847394011006
-1.426071473174893
-1.4348401205759795
-0.396782468863731
-1.4300817604551281
-3.1963890223723146
-2.2676366595829176
-3.12050792652618
-2.200143992912222
-1.3466213197375771
-0.10593181207691159
-1.2929705883871994
-2.239566351072945
-2.1721614314730737
-1.2578866111059264
-1.2705868000597351
0.49323713608726916
0.4893999902902409
0.42851979876347307
-0.1301611769730477
-0.4098897044982866
-0.4159405131260218
-0.35919931053185683
0.3746688048355065
0.42663095803230283
0.41646247653441815
0.42978335345029567
-1.3310509914595292
-2.1753121836268763
-1.2533511195698215
-1.2597621156200673
-0.3421731013902984
-1.261025765449416
-1.2476551025637235
-3.0055654915844348
-3.845147510793277
-3.7723788024464846
-3.705040438861486
-3.7035188478194883
-3.6949341091952492
-3.680094813255215
-4.515583112313335
-5.353893714093333
-4.425181277464499
-4.359971804190593
-3.4473282923624184
-2.5340898499488107
-2.536929417439795
-2.5337550926742596
-3.384265022925572
-2.464594236628293
-2.4032519451781122
-2.4120619509456684
-1.4973046083742618
-0.4371666616747642
-0.4021086680029346
-0.42166592638510203
-1.4971303798240327
-0.581399053727576
-0.5935054605210583
0.23503533898334314
1.157145738761248
1.1544948557850296
-0.6167135536601352
-0.6109504616180622
-1.464110959563177
-0.5469725261818997
-0.5526294085569767
0.29970473078128973
0.3051770497949699
-0.3899079336100141
-1.4541095348189825
-1.3872723419632205
-1.396249985654844
-0.4854386419900626
-0.49329308885761103
0.3619498999234397
-0.2626672742953715
-1.3928676808997502
-2.242627244711204
-1.3271533580843584
-0.41812661787708466
-0.4295155658522845
0.4194099174600982
0.42308105427134995
-1.3438621267944357
-1.3389837214915543
-1.2761591615774874
-0.36690287162322305
-0.37864066372583716
0.4694543251440448
0.47220786918456814
-0.20460751493113719
-0.24483002355029465
-0.37113791170785976
-0.3825852920258943
0.39356971715427275
1.364933333032301
1.359882196119743
0.4401648304461506
0.44503439268944384
-0.4068757694234761
-0.41151676451402175
0.3625168295534113
1.3444540819478037
2.1945226777499367
1.2746814392036503
1.2777279308394935
1.275712565440616
0.24244163556001447
1.1206002159966575
1.1396239296407211
2.146763822652739
2.0819644755927857
0.31758300105933657
0.3280790196927718
0.3323403172142506
-0.5255642790986486
1.2387948050255337
1.2271978044921914
2.0765397960394143
1.1591231613038324
0.24353552152777364
0.1758183027916328
0.1448706521727568
0.15828778171934804
2.0608787856658486
1.13393499500964
1.9906884575961328
0.2219441803423808
-0.6263654435745702
-1.4819320262777467
-0.5675358978269429
0.25630573052382577
0.2797881480560619
0.2210425447609256
0.2360080863872745
-0.36475225962099966
-0.6098658065829102
0.1433864222131662
1.0520677654945223
1.0765234246733535
1.1014259357703997
1.1060345739898525
-0.6596709599566034
-1.5035760450441185
-2.353863288465483
-2.2872706766550883
-2.28885951998274
-2.2838220323459093
-2.269417556705604
-4.023648244412032
-5.710965139873256
-5.632573414472749
-5.564446335145792
-5.50139506315238
-4.582080951969401
-4.576074457707184
-5.415187884606037
-7.107369549641946
-7.886056152855812
-6.899854591623474
-5.987357451036424
-5.07308129656915
-4.152238865317858
-4.081809569024498
-4.9909819035110665
-4.925351694742042
-3.1013190503434735
-1.2888576994161678
0.4557336055031547
2.1405237993954476
2.979890779073716
2.967606596755963
3.8023080127620004
4.6932579298547825
6.427739474694168
7.238999122423861
8.911852694779517
9.676675106178884
8.677988415531285
8.602913589681497
8.589971888989966
7.647651523290863
8.477933030357296
8.389358184146515
8.312373688175423
7.327709708184522
5.499371191497705
4.593549179317836
2.7059982291842273
3.68072044548972
4.530167281058001
4.461077589978506
4.398738129118332
3.486862851791284
2.5725151660284737
1.6014336302324992
2.5594334257521534
3.465645019976948
3.3877378132916602
3.3221491798739646
3.264867523826259
2.3543962747864318
1.5049322986529061
1.4003010578579427
3.2596350971796446
2.3251624785917238
3.1741141711903738
3.110242926550064
1.3473812260075197
0.43796006901087564
-0.41140219058078503
-0.3474655783378008
-0.3515495378861099
-2.122533875654172
-3.8131824349509094
-8.120631984759356
-14.979180809102928
-21.693451043886064
-32.7313457592338
-46.234771729026235
-64.8136603705902
-89.36879480726341
-118.04123788904838
-146.55780046667047
-172.29147237923632
-188.35729913192213
-188.0248929406866
-172.06749381251518
-148.2549131255259
-95.00427499663809
-8.06472128201589
40.890596015877314
107.29390930826503
163.86127983536656
205.14094252125653
226.44302106080053
229.00655865982066
223.86136512035316
201.0468484788043
154.85391382846828
107.18566121411435
71.18219668666212
45.185532349260534
27.75955946487662
12.578158363102673
4.888075586813918
0.0
-1.1794812875627787
-1.205060486517733
-1.2129771318937377
-1.2334513925503283
-2.1693788988512517
-3.1616179517550456
-2.2726696986293504
-3.142906414894392
-2.2390959181905967
-1.330757323347287
-2.2547974348221174
-1.3899050705068747
-3.146078776530101
-3.977573586572901
-3.9586023052304453
-4.799018324372513
-3.868748143847973
-3.007332700435949
-2.995210929130608
-2.97831751800838
-3.883960889278276
-3.8069018784507325
-3.7393094529065394
-3.7446291230521136
-2.826364483071498
-2.822083167100942
-3.7288150309532604
-3.707469939995205
-4.540486816844558
-5.3794702026344
-4.451625641708528
-3.528841697673565
-3.525999699448821
-2.625690283640548
-3.5056915342665276
-3.493032690631568
-4.338578952893499
-4.269909876368846
-3.3518173546204126
-2.4989946561878
-2.4923194723424453
-2.4780187435495358
-4.2365134542175085
-3.301207884854462
-4.1503118953862925
-3.2314239696490157
-1.4614005814151083
-1.4599690847695166
-2.371262814198653
-2.3571666656255625
-3.2014566674904406
-3.130491816401992
-3.13346888599968
-1.360857403275621
-1.3575426899304226
-1.1444248046016356
-1.1840453014110002
-1.2683460610904507
-2.236519747926615
-1.3226181348393653
-0.41426950647420274
-0.4224229164098565
-0.4027005666831947
-0.400795084168243
-1.3453058843918353
-2.2174107432165266
-2.2091090982892396
-1.286131082580224
-0.38935740685112574
-0.38756047662058163
0.4259546668925298
-1.3388447269120711
-1.3288540940355964
-2.1793213710142503
-1.2601238154175667
-0.4096716955208267
-0.4056145292847281
-1.3154163159290166
-1.297455669817172
-3.0568147044417175
-2.9783834232833697
-3.82968008475013
-2.906603610723695
-2.899159789540716
-3.8033785061102683
-3.779355924673964
-4.609214716445205
-5.445052045692782
-5.368944915596234
-5.301618412454384
-4.3816979382520955
-4.377454493148184
-4.364438427013711
-5.199529876600531
-6.035779178146756
-5.957179441823664
-5.0340496229437885
-4.116383473407148
-3.197935734651254
-3.195588062419749
-3.1876064041279077
-4.034299410187725
-3.965994296132176
-3.05175878431082
-2.1389165902067764
-2.143199593908955
-2.139984039796054
-2.1314035559511337
-2.1214277335945533
-2.969414356252719
-2.9032448850365786
-1.9881086499573164
-1.9925736886164471
-1.9910056395131197
-1.984009069228485
-1.9734910696102885
-2.816225680704838
-3.6636552375513385
-3.5964001149525453
-1.8259414548194144
-1.828036419869431
-1.824064000376198
-1.7753235199885955
-2.659753882695049
-3.508677713193516
-3.444187147519524
-1.6792532721057467
-0.764746908115876
-0.511900003643813
-0.5008008607457219
-1.6674672210218018
-1.6653349832441167
-1.6057315597955315
-0.7014432358989614
0.0
0.13105305613710633
0.13791947101798008
-0.5744357634457362
-1.6156051952521469
-1.5458385476611585
-1.5522606502237701
-0.6393123502873647
0.20786129365153772
0.21042323314689362
-0.5049152382025981
-0.531974907213043
-1.5415910876086358
-0.6279146172472341
0.12094979563137075
1.1193223479952978
1.1146411631789475
1.0490278313074235
0.20097601001207394
0.2028474505319562
-0.6554166271374046
1.1096397483847031
1.0988751387201858
1.9483924797559098
1.0298952996356658
1.0381636892977344
0.12147081590703845
0.0
-0.6754257061901383
0.9497712933186021
0.1196909957520804
1.0248674943162497
0.11458047817750627
0.12674069998820195
-0.7202326645665218
-0.7230367961546798
0.04058301688704687
1.947385701088409
1.0173819200477596
1.019247614313891
0.10429171960105084
-0.7424564845499729
-0.742459255373348
0.0
1.0206585344972896
1.8734128787920856
0.9558830135903283
0.9610171844965198
0.9609808254817943
0.9526176665556274
0.7252590303797489
1.8435193883828098
1.8358471960267608
1.7707877960535117
0.8595137446080188
0.0
-0.830803014667647
-1.6822738994705833
-1.6838977717353114
-0.7619272174518977
-0.7219616241696483
-1.6600245901841915
-3.4146308282960454
-4.251447647595797
-5.031180010130044
-4.966785295718636
-4.049130624147989
-4.044994448942151
-4.8814983456525125
-6.63312630163284
-6.543983751098817
-7.319293653390661
-7.252584594119541
-5.41751651065136
-5.355688021227591
-5.352610217841956
-5.343122472977309
-5.267028736146252
-5.198676722829567
-4.287229067461269
-2.4624335621079343
-0.4142904947343291
0.1273421834461197
1.8876849449796236
2.7262387524689737
2.706948465844655
4.453175276336816
5.337749241790652
7.006621107009874
7.82872999401357
8.592326054000463
8.511627690366351
7.581527016762273
6.649725193836418
7.489445493629162
7.404517953601188
8.24591561723179
7.252142204661323
7.191171764278878
5.3591156566681635
4.445420687524713
4.444085601220863
5.290635376900094
5.217321866723156
5.1502432140119945
5.088492942093212
4.175466477599726
3.2589484219567324
3.256405533539326
3.246577468449878
4.090363047600473
4.01913125697531
3.9570957970434932
3.04724606325099
2.1364756347785114
2.1407834332393145
2.136609943372971
2.981424500711174
3.8283546155801575
3.7606974434585236
2.8470090328025157
1.934173577766356
1.9378588917709656
0.7577548355418987
0.7238981439741257
0.7571043856705592
0.0
-1.5964028217909356
-5.051824706985135
-7.58340649594148
-12.674505390893335
-19.46765762421385
-26.177951350510327
-38.049337792575656
-54.998143943905966
-77.86771573376433
-104.87484457175829
-132.526885200098
-159.24424257794632
-178.84336544156724
-183.7231444652461
-173.1410051784241
-153.73684196239998
-115.66080046790066
-36.26033593476168
16.531227047041586
85.64314975296496
144.04265766834268
190.7304547554674
217.52647715901344
223.62045157833717
221.0878543124767
208.12509084454211
168.1351702174058
122.22752830599782
84.10845701093041
55.82543134068163
34.13085104093885
19.040249081241107
9.45213553630324
3.185060820951369
1.9319099056969966
0.301047667639644
-0.246821977585805
-1.1659908466221007
-2.9516360052795596
-3.819497875066705
-3.833668018432012
-3.844730557572932
-2.9257754851586726
-3.838623199313514
-2.9628841283555944
-4.710825767010726
-4.687418076903418
-4.606862357862437
-3.6809441981427953
-3.6775286286983446
-3.669800143681473
-3.656595232924153
-3.6372563575513057
-4.538256440945917
-4.452446100098738
-5.29560222799491
-4.366176863471878
-3.5045681844337406
-3.492390946789605
-3.4767766622559946
-3.459452349151214
-4.296973574496218
-5.140330828743838
-4.215896183984155
-3.2939571214964567
-3.2865635255361973
-3.337089507185853
-4.166915754805579
-4.144548679229967
-4.982316426707097
-4.0542120978749905
-3.1320097556402207
-3.130083746880823
-2.2684351609720452
-2.253700692718744
-4.012608151336404
-3.9309827866816085
-3.924815592918426
-2.999800876399071
-2.9956775363284267
-2.1320506076832815
-2.114505374076738
-3.868260240824364
-4.7039407674618285
-3.774545249711055
-2.8520229248293782
-2.850398257667677
-1.9888821405439139
-1.9610818127654492
-2.8745617543768374
-3.7119214671535907
-2.78499216048748
-2.7192446364220757
-1.8681527793880928
-1.8645625522177594
-0.8584778808598773
-1.790907711783578
-1.8511339350146239
-2.7264448303976385
-1.8021240009532786
-0.952700546283484
0.8195955214590972
0.7531643054742699
0.7627721355521376
0.0
-0.9919093550046556
-0.991572646347047
-0.07467445368335557
-0.07574910827274939
-0.13148366438813253
-1.028788979996461
-1.9225570941305394
-2.7506253585364187
-3.5885325743393253
-2.659189283594176
-2.6544902986877106
-2.64572022759717
-2.6290893546812457
-3.5273860955973766
-4.355797054630738
-5.190884298169317
-5.113006453250781
-4.186457116799954
-4.17910633816542
-4.165105132405428
-4.145624806695559
-4.97749331323429
-5.813089783427896
-5.735049157345918
-4.811429002402443
-3.888787962796118
-3.029356385737879
-2.9629274392959206
-2.944693939642997
-3.8429736486664963
-3.772774423201858
-2.8586785447199095
-1.9467427897066982
-1.95056406666331
-0.9913261900886946
-1.8709470846172926
-2.8268051823903195
-3.667138218567291
-2.7421137588329896
-1.823605552011552
-1.8256692076594576
-0.8539646866121138
-0.8278217309263062
-2.712996876784952
-3.5525895470412707
-3.4801150489719985
-2.56020996167908
-2.560128369998365
-1.6918767607267273
-1.6008065407508436
-3.4352305286582494
-3.41649193513249
-3.341583944529734
-2.425079513927923
-1.512429190738281
-1.5168783304477684
-1.5105723919717429
-2.4180696452072654
-2.4035237750821143
-2.3267162961307424
-2.3250065050364626
-1.404279205931795
-1.4051617526567741
-0.35271260553500433
-0.35449229933724286
-1.3901703862035197
-1.3844345333077497
-2.236275542203673
-1.316291386257509
-1.3177751530390156
-0.35159203884985285
0.404222422745978
-1.274047202222154
-1.3325405985516308
-1.2737469133668484
-1.2798007507839069
-0.3671077377615244
-0.3735706866592886
0.4838002148189055
-0.2312658009693804
-2.1812705746303314
-2.1007302486450543
-2.09772990209362
-1.177507017004926
-0.230230755458297
0.5301415715510063
0.5388826073737674
-0.08183556662663702
-0.19476826557807303
-0.30531165315372216
0.32436861249046806
1.4395199897142212
2.2877715459134627
2.2256552906002263
1.3168247173351408
1.3279113130264428
0.32686663292334645
0.24778727752982707
1.1461631918662385
2.2267939255110925
1.3093322923131414
0.40445630431533375
-0.44237519402360664
-1.3308571931266457
-1.3223723401724392
0.45336251251880083
0.4510866245841805
1.3070129644052668
0.3922079495551047
0.3999861047500271
-0.4502931238979875
-0.4536968018118695
0.22568577072387092
0.266553008385675
0.39293555546695813
0.406123548387072
-0.36684537723664506
-0.4119859780537105
-1.3323170366907495
-1.2654361909674774
-1.2692013095815
-1.26852935148192
-1.2595372425492455
-2.164291404409576
-2.9965194508290627
-3.8305919267979145
-4.6706435117803515
-4.596489456723763
-3.6721789706609735
-3.665787683709205
-4.505616806865356
-5.340541194272437
-6.17626442748799
-6.949512943818352
-6.876127805587981
-5.951935185336842
-5.02448831546723
-5.0122679220974184
-5.850110414460605
-5.770086175734967
-6.552467473150302
-5.6380880201841475
-3.8085465523363715
-1.9645853043327675
-0.6681411497518049
0.0
0.0
1.4278944830642855
2.3213415619390405
4.978298265973915
6.643631024503926
7.464902321349937
7.376234116875767
6.4441799410534415
5.515367087699038
5.508019253531185
5.431084631810337
6.279384639899749
7.067484635848666
6.089769263935027
5.183449385424157
4.270472542089698
4.268228717883077
4.256065259353792
5.09621873365284
5.022325373968763
4.962050362355069
3.1366713525104606
2.234044609557123
2.244644304760973
2.244949296694763
2.1885900261769637
3.0893660982766145
3.0250378850316557
2.1155619665833925
1.208092856149729
1.2181641051659475
1.2209734070965303
1.1683822422639376
2.0679431336085163
2.921113437782291
2.859034831664488
1.9467346642316503
1.9527223826315296
1.9516265281245957
0.7727445221670636
1.904168823174146
1.8878484666208133
0.9681980667817396
-0.7360574761567981
-3.3405354855513245
-6.729555438048959
-11.825142588513618
-17.76810290161933
-25.33102567144756
-37.26564319604201
-52.501046743222766
-71.9537988179881
-95.54964748478541
-120.72454459834219
-147.4056358784136
-167.05358597500646
-175.47563383198866
-166.59219496213737
-149.00362567565887
-118.92762583066404
-56.498696018565106
0.0
60.761389959122106
118.5395379323744
165.3711905155203
195.0485637532973
204.84258474832512
205.8252679270798
199.06689503231874
171.72797846707155
128.43231187301646
91.94305607338868
65.81393850878132
44.0665092031589
27.436659994977788
16.777250409402125
8.939231437788997
3.8196195628365492
0.45339875716228545
0.0
-2.5250154732310475
-4.2828646065309695
-4.284614878387656
-4.228097842262663
-4.239382617386405
-4.242024011248771
-3.3809455515422155
-4.217080531217553
-5.1183880248571505
-5.034113235378614
-4.9575259389835376
-4.9532433691908455
-4.026329796054049
-4.016649891371279
-3.998029800047021
-5.750474253881004
-5.660556470055864
-6.499395006100039
-6.4219884887759076
-5.4928098601103645
-5.480437559937389
-5.46036637177744
-5.435994124046123
-6.267542339073375
-6.1856228964148245
-6.113791226221217
-5.194550314789606
-4.274479270527856
-3.4161502644623827
-4.256630091409245
-4.23954583746426
-5.932046636534125
-5.856792674157079
-4.935361772535793
-4.013957369735322
-4.006991523603786
-3.988593574661269
-4.886677325843259
-4.797444449906144
-5.642308694831753
-4.654734890847669
-2.8869975920821727
-2.889366054869712
-2.8833908589655715
-2.8711719456992912
-3.7103390179826548
-4.5536066497683105
-4.4831483163682515
-3.565436260887703
-2.6440392590845407
-2.6946080007203763
-3.5386050049351505
-3.5191335322916024
-4.35827162760021
-4.285512518817457
-3.368684293641999
-2.4536546990316315
-2.454550416165046
-2.4450334552931037
-3.3520456129956613
-3.269928099802488
-4.1169965503911055
-4.048688486556812
-3.129739037866474
-3.1285976452070035
-2.207167194706841
-3.1063277563219502
-3.9440195471977804
-3.9323643031587756
-3.8614137763933227
-2.945784128300164
-1.1634217823130728
-1.0887258024255526
-1.0673346776708468
-1.9922972975067226
-2.0174670147434117
-1.9545563204365162
-1.9640073159954021
-1.0497495450222687
-1.0495880809488973
-1.9606525858889436
-2.7971243808829023
-4.487232321920899
-5.328240410968954
-5.253548022255428
-4.327346605690389
-4.317822806271874
-4.300355076070232
-4.278884796531521
-5.115220137371736
-5.042924810328898
-4.063523621185474
-3.160310834572091
-2.2542745343124158
-1.2397416066095304
-1.1648912681974999
-2.2522301030238614
-3.1012415386702075
-3.036512308909333
-2.126607268449509
-1.217702444167516
-0.20473989178546773
-0.1283687334980764
-1.027496134404388
-2.1183207965576885
-2.051740398666426
-1.143240208449247
-0.23846944883011326
-0.25053498759011006
0.60220068463542
-1.1637948744279358
-2.0064203138524785
-2.000738167305314
-1.9358329849580336
-1.0229257839230077
-0.054093532255346174
0.0
0.0
-0.8787669336062601
-1.019520513042188
-0.9613150540133891
-0.9760269292017065
-0.06726364566615944
-0.07262782624881617
-0.9854151743025977
-0.9087431021697505
-1.8206909582545527
-2.6697100385084074
-2.6051936444860315
-1.6915797371596037
-0.794646329626963
-0.6682187650538156
-0.6119953815326266
-1.685384256518398
-2.537810550908983
-1.6243666273538726
18.905224829934177
19.78832969332333
20.587965056680684
18.741836294647438
18.646341983894448
17.668994753427423
16.902749806949515
17.574972153439727
17.652580132086275
-1.7911585457972035
-1.6159827966135498
-3.2577993176569175
-3.102723075291119
-3.913464382622197
-2.980738597704184
-2.0656721456890326
-1.14973634351307
-1.0755364553008275
-1.9799747617603336
-2.98383251082784
-2.0655957855789358
-1.1575941527099158
-0.2527958335598042
-0.264984517324352
-0.2662873207593782
-0.045041700847967735
-1.1704670396309322
-1.1655110249698777
-1.0977718477830403
-1.1007995980794245
-0.19509356618928186
0.6060081196533437
0.6093250941756129
0.6152639298172162
-1.1558227696822174
-0.23557166466920185
-0.24568555923286678
1.517400365102226
2.363956364526437
2.299517505423273
1.3875843346420573
0.5407849449684563
0.4470772429274059
0.12854907035733146
1.3266498203466686
1.365991988674247
1.3669239221654679
0.4643011955107588
-0.24841027416931702
-1.2755474500293966
-1.205205870230102
-1.2117076626413132
-0.29542057563591834
-0.28591654925862015
-0.22405662676090365
-2.1091952014562594
-2.945186894946731
-4.6421013868487915
-3.719047764799167
-3.653039004011652
-3.6494591450458307
-3.6333212817825653
-5.382891351024594
-5.357078521697229
-5.273670875315112
-5.204945875031738
-3.3698829208922487
-3.3808078426546095
-2.4654025563003708
-2.4671390209332795
-3.3193180136076355
-3.250055920006687
-4.105742881205007
-3.1889135035774134
-2.272424010498154
-1.2588410544536337
-1.177186760756324
-2.2583405035126596
-2.25417304535973
-2.191261207497007
-1.2845404970611956
-0.3800436144087598
-0.3916012681650844
0.4614204945264731
-1.306566079081889
-2.152597045313905
-2.0824212622592935
-2.93973589883442
-2.0225060200716456
-2.0237997105129892
-2.0172131888736184
-2.002722463654984
-3.7621222924595354
-3.6848630348305305
-2.7665775154768126
-1.8570156702806533
0.0
0.0
0.0
0.0
-0.9733138842713819
-0.0658123631596556
-0.016101907616997972
-0.030699392113445162
0.8188306856691285
0.0
0.0
-0.933236558752055
-1.7849704524298748
-0.8682667419341525
-0.8790062780860984
0.0
0.8823941665229402
0.0
0.0
-0.8822349764419122
0.0
0.8737571947261692
0.9022312351712333
1.7560798148035113
1.7523618294076646
0.8329524202758566
-0.017321520261258886
-0.02045035981751907
0.0
0.8816206705904769
1.7281838336189461
2.580881373787349
0.8092125273948791
0.8120689425366199
0.80651564766694
0.6173363114412325
1.6937310144606643
2.5992921790101113
2.5252884275172023
1.6098754892696179
0.6957971755546597
0.6780275709793878
0.6475232987223003
0.6605008394696814
1.6081487666954664
1.5832804897412847
1.5858421718753581
0.670444392051615
0.6756641178409095
-0.18061087830555442
-0.1219761195735379
0.6534662290741345
0.7115516540292779
1.5641564977364826
0.6476695518061761
0.6546702364516674
-0.19656434601970912
-0.20296572264268772
0.6172703791784444
1.5578972589395472
1.5294302908815864
1.5295053499499067
-0.24036849421905707
-1.0878349731347248
-2.7943258730602256
-1.8759956662902337
-1.8786324373935142
-1.8742645737198085
-1.8603555202442914
-3.615296635430541
-5.304196207008278
-6.082493947658386
-6.020012698316061
-5.039650271091109
-5.042675414433494
-5.032173506627224
-5.865813447081941
-6.699487274083771
-7.475990863464072
-6.493856297165922
-4.669791612514267
-4.622352113201593
-3.7133787869433825
-3.715747455175819
-3.623993580299922
-3.6456080067631764
-2.736603789357368
0.0
1.6839022136476705
2.5089625489061693
5.110249875061476
5.082333328052831
5.906535103523403
5.871269716358539
6.7527777999749805
7.568328882851668
7.473098870523955
8.244658039004266
7.32088553718883
6.3337735506894886
6.3349259200981365
6.25920710340008
7.097459359651478
7.931540545421498
7.847230381671486
7.771136546539106
5.92371720898827
5.919297481200903
4.988520669578403
4.979397323945058
4.905411060840139
4.838732488798199
4.77822345617678
3.8672198059782064
2.9532807023110896
2.9531078998518066
2.9437311571520874
3.783044951813749
4.624443162565677
4.551362824664873
3.632409646284239
1.8612097051428131
1.7978885645677753
1.7412324050304355
1.7308319077410161
2.693820529918059
2.630186624375085
1.7218450371835274
0.8138591338965931
-0.034732086203728654
0.0
-0.8376571655637605
-1.6990699373732654
-3.4028101887714595
-7.7184893002396695
-14.577293321099608
-23.059683383358653
-34.08663652704195
-47.58104538748086
-66.15609385576903
-89.79041159564261
-115.90603441900123
-144.4269903693276
-169.315112214152
-187.10310622206325
-185.87112222051437
-170.7925164157469
-146.14826166112482
-91.77681600882504
-6.002595046835056
38.537848886093286
104.97132504381399
159.78450522459997
203.7705747159848
225.07226699141052
229.4132323573958
224.2073701702782
202.1844513117786
156.90402215980336
111.25552515245798
74.2240284767352
48.95348058975128
29.36208934070226
16.553445842685214
7.958983868413759
1.6876131204793978
-1.075655673346565
-1.9310360838453724
-1.9288968381012144
-1.1010879828019013
-0.9175851293247573
-0.9962412863607872
-2.038312992430224
-3.0144510280846193
-2.96078107123337
-2.0555637772019595
-2.0659733882127127
-1.2092690235337535
-2.113110286604031
-3.007863369006225
-3.8354720334564707
-4.673097227151234
-3.7474596739652224
-2.828993565634526
-2.830100306582835
-2.8215422944581015
-3.726170701321528
-3.706260055468836
-4.546230091459612
-3.620418499660924
-2.7010057538013625
-2.7029731289194285
-1.7941149465097888
-1.7962730130449571
-1.8345344215204855
-2.6819330637200225
-3.533486405931235
-2.6132075822759813
-2.6143727543510593
-1.7562716590365672
-1.7435280478115178
-2.6464396616155335
-3.480721203462852
-4.323161246080883
-3.4006438779956882
-2.483994911232429
-2.486049093945136
-1.5867771127041952
-2.4668013453456634
-2.485809013233858
-3.3561031313087177
-3.2883104187128493
-2.3738456503696903
-2.3799503232585084
-1.5255297127942136
-1.5152447208819466
-2.4190424696062296
-3.2547333654337867
-3.2443344161185568
-3.1762276289915183
-1.4075428146484041
-1.4119336369370679
-0.35810465573742833
-1.2985951584652624
-2.3048643472852923
-3.1515273647788167
-2.229794343221627
-1.3813948298917826
-0.46191403990434915
-0.26772209282262316
-0.3143608184199242
-1.309922996532089
-1.4004004021954533
-1.3473514656191958
-0.437276755142576
0.36132949917664325
0.3408812065382632
1.203970094560972
0.2947568477562104
-0.5477214643548225
-0.5436393896555776
-1.4014347903057485
0.138144416255498
0.179833701827435
0.3017300356278843
-1.4520029515115829
-3.2017880523838813
-4.035500287143786
-3.9565730131582835
-3.9518119761430186
-3.021870778471191
-3.927557779425872
-4.7549607913039
-6.503329133220196
-6.415011948956635
-6.338434223707651
-5.415563235487388
-4.492559524587676
-4.4854716661052265
-4.4719832424530885
-5.3123077589367655
-5.237441157394452
-5.17144421177741
-5.1105482622193446
-4.194264147505043
-3.338556669440412
-3.3272213335701504
-4.164581630197379
-5.0042190607143615
-4.930386773567877
-4.01322523481705
-3.1018620317519616
-2.1881911964180034
-2.185941414793198
-3.095282021653168
-3.0824029577684557
-3.0106344372988816
-2.0958649083015497
-2.0384666579651842
-1.1930793858248774
-1.1949822736898854
-1.169518857620036
-2.0388529183614312
-2.8851049160943605
-2.880842819380433
-2.8119103608949496
-2.813113664812569
-1.0236422054666228
-0.6679120349790575
-0.6803030741846157
-1.9273701134913652
-1.8635628688957109
-0.9552064826498283
-0.972659895666301
-0.06550340739462039
0.7831130275172713
0.0
-1.8876550444850977
-1.8752571009060095
-1.8063141604580575
-0.03896476636229641
-0.03883806940183982
0.8015471660788328
0.8039529756120483
0.0
-0.9625424057937777
-0.899267155399644
-0.9099452803133754
0.839101234530503
-0.002149719244465576
0.0
-0.8746598323014928
-0.8829291211632931
-1.7979056312114097
-0.8825924644503269
0.0
0.8729753395527342
0.0
0.8104803313742287
0.8144945735828986
-0.03888855705074952
-0.8988169914955955
0.0
0.8542074389577374
1.7044751225686017
0.7879854106064828
0.8002787189702059
0.0
-0.95882121791856
-0.04587835518446518
1.7135436952907082
1.7025179299575022
1.6349602942343677
0.7221445940644194
-0.1220937861005604
-0.1182056764383688
-0.12184990769096533
0.668442343471493
0.6941826022704725
0.7194057523787678
1.5822968283926218
-0.04831448376445496
-0.13706678076424808
-0.11297865301101595
-0.12132518448089188
-0.128578900862968
0.7217312110608209
0.7264956920197091
-0.03675008175550789
-1.9427261606943182
-1.8660774734472518
-2.720525366439945
-1.80295107159713
-1.8045567434809096
-1.7961962475948243
-2.700619399491194
-3.533438705384122
-4.372296233552386
-4.29956815811542
-4.236060235816567
-3.3203563325507326
-3.320633599961864
-4.165596555254922
-5.004599663608252
-6.697029758848899
-6.619241905405513
-6.547869532274823
-5.625554203277944
-5.55325254877812
-5.54233202686155
-6.381370754193444
-6.303216416819131
-5.382821482583143
-4.404332019152692
-2.6364597572148707
0.0
0.8066079158312391
2.566889989868567
3.3986577695593545
4.288971155562048
6.022831586035997
6.829634287403613
9.415647726302389
10.170647209552014
8.31283902241854
8.239565754650306
7.313740319676197
6.384312969326576
6.37405003659678
6.298403269673101
7.08724736253429
6.112580016284381
5.142157503837334
5.156603439547273
4.237632883418944
4.229346319913706
5.065748338102485
5.902897851685935
5.828860455145021
4.8459492226529495
3.9379653693161227
3.026428476976355
3.02815276634631
3.8749449142836765
4.720338935108904
3.7957796166045212
3.732968883260496
2.8218731400887433
1.9099318890373727
1.9141612191722426
1.8649382309592566
2.7650399572991606
2.700773093433949
2.640832589090169
1.7968656015977882
0.8816234805285187
0.7861854451114093
0.0
0.0
-0.8216844221935303
-2.5811064955017624
-6.0348041879827585
-10.336089967371352
-15.35062730839796
-23.83896288253351
-34.01476145152375
-46.651262303913825
-62.72559645577462
-85.50120831529003
-111.62438439494126
-137.53843569476794
-163.31345936072358
-177.7259835559753
-176.53047397561508
-161.54520960328477
-137.825804391604
-90.43803374042633
-9.14611443636053
34.64060801168076
98.41280517820287
154.20306352573644
192.86978712205578
214.26233326095897
217.76779493631994
212.62563625469795
194.24625312014732
152.56919255346887
110.50040643649638
76.07459407980966
50.512719510951825
32.43798204595364
17.03727831683132
7.1921102388600815
1.0140049554117907
-1.0431898476076857
-2.7920534880587327
-2.8176496649123726
-3.7223843368804466
-5.492199267493224
-5.49589496916222
-5.44093988590898
-5.391602627673753
-4.485254953313929
-3.6359414171839344
-3.624593940300476
-4.5240869700256745
-5.353492974186567
-4.413713396766523
-5.258058804119203
-5.187444469709419
-3.411361411487767
-3.4027451940493867
-4.305618089178983
-4.281834418551274
-5.115442988635424
-5.033676567762985
-5.027557257965881
-4.103915808032378
-2.324997097760679
-3.235821844092381
-4.071526513826894
-4.907046360597969
-4.894113435229045
-4.820558563694125
-3.8971246351726534
-3.03747342961839
-3.0213620539395056
-3.9205583383430755
-3.9003339308572
-3.8224450737883773
-3.75383549198353
-3.7578376578476154
-2.837956601488468
-2.8318212319948883
-2.877906701216214
-3.7140104023124088
-4.5459235787109025
-4.530707621356347
-4.456186929699672
-3.5333639544612967
-2.676553652646298
-2.666571119446985
-2.649995158451931
-4.408048655258512
-3.475340576444196
-2.5517495335748435
-2.555092804866931
-1.635947077907698
-0.681937420177398
-1.6095397673315632
-2.529659132903791
-3.374228489051446
-2.448165237851501
-2.445345302467342
-2.439100877645349
-1.533703527782854
-1.5007882864544326
-2.429915772393296
-3.296596332100323
-2.37118290154076
-2.3073063024241005
-1.4582262069710008
-0.4534988785106571
-0.4546731708236245
-1.4160206211191215
-1.4804293123594028
-2.330378867297428
-2.262036297703022
-1.413522010670596
-0.4925187329618348
-1.4050146587878585
-2.30694386430715
-3.1377549108791176
-3.971901040120703
-4.812727281751892
-3.8848988093772583
-2.956671824313318
-3.8647953917233435
-4.696794036852223
-5.527117876038304
-6.361145699366405
-6.281095591425791
-6.207950841267334
-5.280864413280619
-5.26917290162209
-5.250378764051848
-5.231277329012778
-5.150435035308962
-5.0795280209036955
-4.163433848812765
-3.2522164914829776
-2.3397236495095157
-2.3424205077854157
-2.337165284515263
-2.328228024910285
-3.1755388223216876
-3.107579299682046
-2.190041121486583
-1.3385981826294238
-1.2974741176172602
-0.09499826291720423
-0.14253452997800534
-1.3123281024555604
-1.3128832860584188
-1.2544159699057014
-0.3464146192519838
0.4998904761875741
-0.35441283845799515
-0.33326411944594014
-2.1602655507219732
-2.145786862740073
-2.0716109099274753
-2.0732473989349813
-1.1539582032284164
-1.1509651081443641
-0.9887369275297595
-2.04689555513236
-2.8905039885516426
-2.8183640695250998
-2.820220139040461
-1.9011763823438586
-0.9522483429743721
-0.8804447158669115
-0.8687104036157823
-1.8053987907731681
-1.868733840121794
-0.9571742987591353
0.8023602479188825
0.7892421022588907
1.6385619533755036
0.7200516127771074
-0.12742258374495893
-0.9779663962310033
-0.9803794883954041
-0.06384584675492609
0.7883525823730729
0.7275462363544536
0.7424916792217392
-1.0174471921387798
-1.0094344718785375
-0.9463856217168971
-0.038254032438408865
0.8031783553660479
1.6547988084079273
0.742866298979894
0.0
-1.0062962546210494
-0.08476767251837114
-0.09470065208884447
0.6732715133443905
1.6617253221416344
0.7455134489170373
0.0
-0.03851780985363671
-0.999076161413579
-0.08038570346796414
-0.08665210799904051
-0.08970885610168927
0.7674326065182973
0.0
0.0
-0.9792672348589974
-1.8318462656256858
-0.9143771599078723
-0.9194797404697227
0.0
0.0
-1.8189163092956806
-2.656981056086177
-3.5020526233032916
-3.434122706465592
-2.516548831827545
-2.5155973619685184
-2.5031411210318697
-4.257347597248513
-5.0898602302130795
-5.863082059039584
-5.792846803350177
-5.727594296540391
-5.659356611876638
-5.650066576815979
-6.484111776813139
-7.315070323665786
-8.082453556778482
-8.007006722988507
-7.018806598661728
-6.956474642816476
-6.038158693424627
-5.114328757233586
-5.961850822317045
-5.03559031897914
-4.118904684994214
-2.211687682785896
-0.08566995427585244
2.06250234086647
3.810127810478634
4.636465926187352
5.460397531211928
6.347323684805406
7.161807587803683
7.12385916156137
7.946465596440499
8.714673714703274
7.721864894237649
6.805503259204819
5.889755537077379
4.96998768415601
5.8202983394493835
5.744551384617922
6.592240432210986
6.524854968401988
4.689769113517096
3.775954927703846
3.7752650319495364
3.766250335991288
3.756650043421051
3.685491689036026
4.477341923099119
4.421376143087991
3.5104071340606593
3.5132619949080763
2.5960120055988023
3.490171125001739
4.325513745677367
4.312944072513253
4.24586719732698
2.41707084520213
1.513506845967156
1.5241373992904634
1.5233235260768694
2.4025670235962115
2.3683191109698623
2.303899414691071
2.311368631710927
0.49545945060736524
-0.30468103045831263
-1.1567083749400546
-1.15642664238831
-2.006459328407261
-3.7001719828943562
-8.008123439239323
-14.863122541384376
-23.348175943530936
-32.60791857074305
-46.111477581859184
-62.983553003552174
-86.68644623618776
-112.80291133153379
-140.4766876545231
-167.08339055450085
-182.3256563610792
-178.54730418588002
-162.694948733445
-138.05597892560084
-87.08732807506132
-7.217251796282071
34.47593499190396
97.4277538275648
153.25259737919527
194.53369158302877
213.17424708503975
217.49973190583466
213.2494034232125
193.12133262056753
152.3676285448217
111.25947615990259
78.46426344966929
52.61324264671552
33.96335656761783
19.81783525719162
9.332436231469504
2.1585107966638786
-0.4108118904847955
-2.162857433858645
-2.134489698894058
-2.207001904622697
-2.2191964367468033
-3.151345922114949
-4.011028571950014
-4.8717417633508155
-4.813321270409505
-3.9003819202577485
-3.900651697998184
-3.8867930600144316
-4.783211838720283
-5.606794491595723
-6.436035600366532
-5.500542559873984
-4.575518879410134
-3.653887872852545
-3.6507943419546782
-2.6965974092165075
-3.631160638750873
-4.477224387112992
-4.40812862490811
-3.4892713029184255
-3.489211128332084
-3.481952630995078
-3.4673210979141222
-3.4460512895348696
-5.200023691241447
-5.1179273077506355
-5.046796862844811
-4.125741493396356
-3.26946728129375
-3.2598192158022314
-3.245113868215234
-4.082588015540763
-4.924870921146061
-4.8544677007437675
-3.938633161872499
-2.1688667726434967
-2.1649958859641703
-3.0717548653540567
-3.9055225940448026
-4.7447793175377
-4.672363452125799
-4.608767698642202
-2.8378664421029334
-2.8323813942188223
-3.736661921941253
-3.713595818245814
-4.549239802886502
-3.6208339943179992
-3.558263836227875
-2.648680886661699
-0.8820785275329102
-1.7742226606740554
-1.7574351089245819
-2.637956199890056
-2.6314047191569796
-2.562021280635724
-2.5658796115789806
-1.6469915879643635
-0.7175344984162503
-1.5835591038016847
-1.588849556545511
-1.624558783424386
-1.606824534753016
-1.6136142971485694
-0.7012251735006703
0.14490195775605774
0.9991819970256786
-0.7306265770549032
-0.7582456997840709
-1.604964569712563
-2.4577520448213868
-0.6860025734134096
-0.6883406713617581
-0.6814674673361839
-1.5861464642540697
-3.341183664795373
-3.257959124780153
-4.106226167225293
-4.038433832694051
-3.1152474661894822
-4.026631852795258
-4.860123198233856
-5.690295971755532
-6.522943114349099
-6.441267407496917
-6.368152911095356
-4.592641788716596
-3.6695765161666123
-3.657634007396828
-3.587325448836588
-3.5888962862306024
-3.5294997554559
-3.477235986165676
-2.573326652227428
-1.6619831325644567
-1.6054736041946684
-1.5183225551498452
-1.5015144488968737
-2.5476450551027607
-2.482305695986914
-1.5743127029665085
0.18392233384840373
0.17171498472821012
0.1704156056912168
-0.6244682198731721
-1.5875959449003592
-2.437817213320744
-1.5214640815617022
-0.6088496218149007
-0.6118067117125771
-0.41592214936829724
-0.38596978976604657
-1.5050963054858901
-1.5024882504457777
-1.4415943759293528
-0.5334719051337501
0.30778725082509883
0.3021920906701237
0.3049470779479015
-0.46510902774297214
-1.45644311449028
-1.3896031658088668
-1.3975977223403784
-0.4840307641175981
-0.48614937019449306
-0.2763218540351791
-1.3885014800088777
-1.3781209590018089
-2.228206155094304
-1.3125728502025562
0.4503781889322239
0.43889965977315615
1.2861613572878654
1.2853702279263346
-0.4850379573671675
0.3662102098326435
-0.43892993221943766
0.1432598524095428
1.313785714072786
1.246752909555577
1.2565261389462963
0.3460090741294445
-0.5019423614783196
-0.43854371185182744
-0.45219233074316423
1.3081625529481706
1.3000483801467306
1.2366538285253919
0.32810821600277174
0.3395492487149301
-0.5133080028645503
0.25206494392732726
2.152441845558867
2.13678268300907
2.061938722714477
2.064083062852059
0.2651158756397954
-0.5552601827321804
-0.558026850116573
0.08633605733595393
1.2064289859575783
0.2891262442591398
1.154680074483042
0.2453354851282904
-0.6033351154701458
-0.5436979331085208
0.0031690434553244204
0.07872686363134201
1.1907550279585828
0.2725147788866205
-0.5681351305745412
-2.3280200739151042
-3.1708588374071702
-2.248824593307007
-1.3327123632803217
-1.3353862944294412
-1.32854126574498
-3.0900942629557835
-4.784447993258244
-5.565536938917461
-5.500417542435053
-5.434220448650852
-5.427594673030797
-6.262600041170031
-6.236258216198624
-7.917962430003651
-7.836050174181699
-6.849291460309276
-5.874319212819833
-4.969467100400363
-3.1317946702630253
-2.9640797051609806
-0.8159518567863521
-0.8681209467483249
0.3772044838045997
2.11904808320887
3.000387326552641
5.5882523559746415
6.407968813188003
6.315252404898249
7.151038198173344
7.06540450133918
7.045426301302855
7.876016193972914
8.638639438678675
10.32843128867644
9.327140016443716
8.399422106589428
8.325015976809958
7.394848512624871
6.460750387596324
7.301544451773218
8.081385493426218
7.099067038896672
5.271467113740225
4.36339215084395
4.369144686237819
4.29769732649638
5.141955995532082
5.985493512596523
5.9153915205619745
4.0790948709396195
3.1653332153769873
3.165609993509987
3.15813685494064
4.003638448417442
3.9335174697467123
3.8721149194063096
2.9625732491653953
2.051919650563279
2.056256176643226
0.8888123531579951
0.8544724897309217
2.041204674116188
1.978752695485357
1.072754317814172
-0.6833585467186107
-1.5208648119414063
-3.218669481269189
-5.775774037846439
-8.263120037527129
-12.511299012081764
-20.214616174309633
-31.30126581953831
-46.556899060628254
-65.97621060724738
-90.46786104166604
-116.53186434464278
-142.4440027490615
-168.19122658395034
-186.94976614091328
-190.93554403237533
-179.2967220930602
-156.25870542419372
-112.15771524397998
-24.40939400777206
27.87463175647978
95.94423269650412
154.31332868755135
197.42798408296446
222.4210239331188
229.4689667260454
227.76369616053262
213.82208990466188
169.27381501846867
121.59246111813317
81.68783550653782
52.21436402095547
31.26655453661455
17.243588742384688
9.914287130071077
4.019198172097827
1.8627968357818754
0.17122202390825436
-2.44189773142918
-2.4490945629899423
-3.3337558950162207
-1.5954746932545678
-1.6233299477672254
-1.621185829175103
-2.55016397063046
-3.4576730757336542
-4.296692055013202
-3.36616849823069
-3.362306457988096
-2.4340973202331617
-2.489961913134112
-2.4699312431432943
-4.22573385107667
-4.142830386839503
-4.136692279850442
-3.2125141112842677
-3.209636516388893
-3.2006474828040736
-3.1835321001228536
-4.083317347342757
-4.917884782036232
-4.8402922303519365
-4.768744295626261
-4.763927209891118
-4.752887449508267
-3.882428583984495
-4.71481039572295
-5.546307189165343
-5.529184725268018
-5.4531979482398185
-4.532733977456041
-3.613730586690836
-2.7574085470888576
-2.7421897439071623
-4.5061956614401195
-4.4277707670654625
-4.356768351299672
-4.3577525061817015
-2.5823049494052723
-1.5450781028991811
-0.3631139418902063
-2.544617485369521
-2.600592453850509
-2.533026750846462
-1.6250057660363781
-0.7200433716773829
-0.7275015434838571
-0.7497453049883169
-2.538188947883815
-3.4338601318247663
-3.3456778766596385
-3.3361246461812746
-2.4102703806919026
-1.5540755705897737
-0.35571685302839934
-0.4173045419566638
-1.4403911763711916
-1.5241081094193145
-1.52932320089655
-0.616976872789389
-0.6249669315526112
1.0837256392105021
0.17497615016853477
-0.5242983747273725
-0.6416145240571111
-1.558105397808626
-0.6390777513019021
-0.6454992488774673
0.1966873548139415
0.21034649594210075
-1.6093150117423158
-1.586487131095829
-2.4230143741071295
-2.414500587300829
-1.4907519640902895
-0.6260325092215144
-0.6103656240035347
-1.5391862197860902
-2.3778336547424654
-3.2193454731782736
-4.0658169436713765
-3.9931707439461177
-3.9856643119280704
-3.967513242192065
-4.861351324110792
-5.682675435130685
-6.509290916495119
-6.424350580308066
-6.350410499709939
-5.429107312043979
-4.506637958101799
-4.499262159525465
-4.48491918601769
-5.324056632576535
-5.247847853114883
-4.327214446218827
-4.265891705574314
-2.4970192950040535
-2.4974206943855095
-2.490367288872993
-2.4793027086407915
-3.3262530766050946
-3.2581954200618735
-2.3423630536135205
-2.3489319968001037
-0.5144718380733801
-1.3696009732265486
-1.3649888299693294
-2.3173739414437335
-3.1652392065484305
-2.246701951919514
-1.3330123011461914
-0.41343883869814324
-0.3602289254194286
-1.2693211035920053
-2.2264857366798134
-3.07229858874957
-3.005767183632803
-2.090602721821271
-2.0930065654555157
-1.1731035259514244
-1.990723628566691
-2.967284304925638
-3.8068423725280036
-2.8827081598471755
-2.8229947746624253
-1.059079354355079
-1.0649273347530532
-1.034828746751193
-1.9161355967885902
-2.8114816857131935
-0.9593790905010455
-0.9737846248081505
-1.8375769088757326
-0.9213696142124311
-2.694659452531171
-1.8312922161468224
-0.6587581158308985
-0.6365651490872695
0.0
-1.8004114754174632
-0.8840525186419107
-0.8296371957367079
-0.8454756791740754
0.9210440801722327
0.8557091332526582
0.0
-0.8922989384126179
-0.886176790377072
-0.8210516748135
-0.8320481409471678
0.9316322940127315
0.9270079886706102
0.8664816781291678
-0.8357180983588615
-0.8811956248165758
-0.8146244809214964
-0.8226079821258162
0.0
0.9377757306792345
0.02047962154766617
0.032340662523060906
-0.7427099634965886
-0.805742699376739
-0.8106328378718246
0.0
0.9467256015032537
0.9454499319086282
0.029095688383818458
0.037116177838397046
-0.81171976767441
-0.8132845587350701
0.0
0.9489587442628105
0.9489682238580175
0.0332740368964126
0.04151617529467114
-0.8073638274660881
-1.6623615437918557
-1.5995563103507704
-1.6032478896721787
-1.597369248498321
-2.5036615281268526
-3.3357755278853825
-4.1683970520657505
-5.859873845871218
-5.784494614147644
-4.862626115734093
-4.793541573901625
-4.785639013972626
-5.623051948582394
-7.312330209079182
-7.231786065420107
-8.014976834514847
-7.029331316410937
-6.110316291282218
-6.105623218683764
-6.025573139648491
-6.866577084216835
-7.645364060655598
-6.659687123687336
-5.75205824081302
-3.9257366214343903
-3.0170083457383856
-1.7607189269445924
-0.5417099481361621
0.0
0.5003823352677053
3.1609466587515818
4.89303256197636
5.705739043879463
7.378050289482534
8.204395132832461
7.262787824810965
7.177486740990785
7.157648457932974
7.989506266456046
7.903617823014719
7.826022348760214
8.611231855986098
6.773453918575331
5.855980452043424
5.853591657528023
4.923119974415375
5.767033296389671
5.692568266303326
5.626315195325841
5.568389714664418
3.7370269739625184
3.742771508006198
3.7367095441680713
3.7232447092340135
4.563665162662072
4.489481614771696
4.424899829382445
3.5128308823593235
2.6000684921171335
2.602520654727732
2.596558086979779
3.439602654201377
4.284755284953628
4.215301083096854
3.2997926119866414
2.385117124825447
2.3869473022888092
1.2559129628015766
2.372914300003892
2.3679842602186514
2.3039386689978114
0.48572013930653
-1.2142836870928795
-3.75816758448191
-6.305274061776034
-9.705663308465594
-13.02787076343187
-20.733577197903557
-30.900268700742966
-45.3701231460934
-63.08130875932358
-85.01992978032888
-109.3275026687742
-135.2692677499429
-161.90685438116432
-182.41368757975266
-186.43819497221403
-174.82235843618295
-154.47617637457907
-113.86523323626257
-34.40234844248067
18.32375990312122
85.59938201958101
144.0793647763732
189.0693809603782
214.94584299165874
222.87580921042655
222.96050672240113
210.7784549902572
170.79290906296
123.96820637533324
84.99039530028979
56.47727735628301
36.557685823673324
21.500995349445745
11.994288592143203
6.335693435801939
2.0838703654103274
0.41984463824814156
-1.1823526586168098
-2.037281292532607
-2.0624399757834957
-2.0930309563636955
-1.2642437815450938
-1.276235483187354
-2.197394154237595
-2.1890665183267557
-3.0338158482843234
-3.8821204345652607
-2.958000896495097
-2.954030030334101
-2.0882464676211874
-2.9902366369740747
-2.967391505734889
-3.8017182110824628
-4.644296437486709
-3.7216003000084346
-2.8043167181666067
-2.805297789275666
-2.7957713951128556
-3.6989756994017196
-3.6774618550404727
-4.515820948605988
-3.588478321269916
-2.6676449783412655
-2.668299438415491
-2.6645889673296868
-2.6569073817985633
-3.4999916446999935
-4.342221163399421
-4.333066081961063
-4.257317251179292
-3.395214755897233
-3.38212292324921
-3.365960750924119
-3.3498886643571786
-4.1928497166976815
-4.122826156007599
-4.0589126453204925
-3.210110816125625
-2.2862664947534626
-3.197469044459517
-3.1793469795771183
-4.014646947232526
-4.855805255460184
-3.9312752282960837
-3.014496335813825
-2.0955093989541527
-2.0635615704600814
-2.034236372599812
-2.9863056079760204
-3.832473300062626
-3.765115711498413
-2.8488750852618465
-1.9980151284040195
-0.8961589899288461
0.0
-0.7282798243354354
-2.0197386251421605
-1.9551891415969034
-1.0506415392210398
0.5991442760547113
0.6297877812564497
0.628405832184229
-0.0563225419863135
-2.026031614179936
-2.010660444995286
-1.0875424124289963
-0.1731100662290811
0.6755394872507707
0.6104251853917111
0.6208362120875726
-1.1430032563009769
-1.1365747466022684
-1.069873672103788
-1.0749717345068242
-1.0762145368574696
-1.0682128938039794
-1.0107288911047343
-2.8670848459376064
-3.699467578186746
-3.619074465312314
-4.468472726205563
-3.544646946274618
-3.539940694817148
-3.5274831006468066
-4.3602548811109925
-6.112512805219059
-5.173585197824607
-5.0996791420452405
-4.179956048147539
-3.261005990180409
-3.259128723478901
-3.2518670433204027
-4.098623431521223
-3.175328075932765
-3.110366553111506
-3.9687582750288177
-3.0493292689681946
-2.193681610154489
-2.140219690619603
-2.0904217563585203
-3.018707112646214
-2.0934967522798646
-2.9510693592751673
-1.185732772217735
-0.2753293915598307
0.57385226558432
-1.1966952734369865
-1.188478275866258
-2.0384614685074944
-1.972413661937059
-1.9783114662375179
-0.2047455784504798
-1.074169918033304
-1.0232140729592893
-1.9243428178174526
-1.9333682498792175
-2.787149857578223
-2.7270630915347565
-0.9621103201300503
0.0
-0.7805726879386221
-0.7891174117786357
-1.8541208421536348
-1.8506291641290382
-1.7903281193962006
-0.8850398273426069
0.8771079048667144
0.0
-0.8306247116532347
-0.8379980527277541
-1.7884474872736864
-1.7206129817397757
-1.7276879097963416
0.03671156495173168
0.8916470357605096
0.0
0.0
-0.8624034261063804
-0.8651574469886373
-0.809644688859967
0.8741582355546563
1.7928203345715195
0.8748590917436474
0.0
0.0
-0.8724739371039386
-0.8099513295568372
0.0
0.8788732734589256
0.022773667855222734
0.0
0.0
-0.8606121114469792
-0.8606850882723759
0.0
1.813740804648009
1.7365787122237593
2.5871487734900147
1.7342849174569341
0.8139467746539116
-0.04294880387458836
0.5556339803082897
1.710030868855992
1.7062761364904488
1.646117941400326
0.7419673085687202
0.0
-0.08933799918978746
-0.09551658147375724
0.6217180627554542
1.6591858413401344
1.589884805183447
1.5967055987089394
0.6841082349617168
-0.16274504714498095
-0.1650039577046645
0.5554583868755693
1.590090362586533
1.5869656891886974
0.6725427143384394
-0.1465851264955999
-0.18084241362089093
-1.0735387347170986
-0.15556549950757842
0.6923276182473084
1.5455557363572703
0.6285863789158421
0.635124880701813
0.6383692904144606
-0.21678643496365074
-0.22477742715268145
0.45420770503383084
0.506124942514266
-0.23460057235981036
-1.1404460905867173
-1.9761505705593825
-2.81532700985519
-2.806806287958204
-2.7343884163598156
-1.8773287474526597
-1.8701942983062585
-2.7136019872540933
-3.556193470865859
-4.402450305560526
-5.186541575041642
-5.119916794932164
-5.9714667866018445
-5.890429061361289
-6.7884151658510525
-7.61235047239535
-8.372561731294674
-8.288349103358016
-8.21473915571644
-6.374514580785659
-5.460291685628371
-4.544824695827438
-4.479599794514388
-4.482146586572009
-4.422422058075345
-2.596998741907401
-0.6390268749708017
0.9091669110337158
2.6005720526217786
3.441924440086319
3.425769413658736
5.176382117898091
5.141495710065921
6.876957749196388
7.693750755629553
7.601302806419715
8.378237217963925
6.537154735155912
5.6196388515605715
5.619026516299398
5.544362972077382
5.536764525505759
5.4637033276999
5.3983389254602585
5.3408850651777025
3.5099602710026963
3.516806842388428
3.5135488843636824
3.5059329918548587
3.4302339178523136
4.280761638891368
4.21531647058583
4.155680070910799
2.388288499843224
3.24298294559403
3.2353547493979193
4.075964819259957
4.917960054576119
3.991823837071185
3.074686730175321
2.1623946853772815
1.247526465283139
2.108992496386674
2.104371664594494
2.962939714293389
2.9037584725517664
2.845541581438602
2.8499587267546915
1.9920916162628404
0.6672462818728149
0.6387998617107471
0.0
-1.5115499123641585
-3.2622623140277733
-6.705734711811573
-12.701359612188348
-19.479308967137904
-27.891279245611525
-38.84566216688461
-56.6599213827955
-79.47095287067597
-106.47506302553316
-135.0979656997958
-161.78747849561276
-183.0690153538036
-189.64124841531338
-180.62480630109525
-161.2216899648529
-125.63369568064442
-49.39929174886796
9.226298665447906
79.16844742632553
136.7557807644633
185.30521198514595
214.78199676193293
226.22551639032065
225.33414787842148
214.9906711555512
177.76306246422786
128.12257497539008
88.13886944512738
60.775574787941075
40.17718427630746
24.115697167499988
12.658220555306329
4.537581352280351
1.184175078726581
0.4980130855491195
0.0
-0.7469247259312054
-0.6339942833839625
-2.60869996432972
-2.6185357437519285
-3.4841196787913202
-2.574064768925199
-2.580517493870581
-1.7216808117869822
-2.6269948862642645
-2.6027469807621877
-4.355011438251885
-4.26957115856241
-4.261613333476975
-3.3355583111249363
-2.476303174833082
-2.4623730612375825
-3.3634904013768154
-3.3419475178421205
-4.182034933953581
-3.257654539722667
-2.339978672793709
-2.342066160026148
-2.334919871181139
-2.3648002806066266
-3.2215325496609584
-4.057498737161022
-4.898402581495374
-4.821317126454527
-4.8121790705127765
-3.944215093834542
-3.9237093909893437
-3.897448104202915
-5.64715469445645
-4.708810870438011
-4.6382426446528155
-3.7235654133979716
-1.9558581681679825
-1.9547747664852504
-2.8647786452918003
-2.8482218200970766
-3.6893290850768614
-3.6148152063089802
-3.6141199848145646
-2.6911182286817663
-1.8300728963286361
-1.5938017786113772
-2.7148850578451946
-2.6973940580175255
-3.5416706273095326
-2.621291783262754
-1.7070476366549179
-0.8581580808822803
-0.8521686098809613
-1.75706569645724
-2.6588017999077027
-2.5761432618365077
-3.4248634320151865
-1.649156864721008
-1.647991220057273
-1.638973280087148
-2.5442067040701972
-2.52429370118791
-3.360933294806662
-3.3511534153405322
-1.5741609503482241
-0.6527934702755811
0.13575641654170906
0.1428473331686434
0.1480595624965236
-0.7044238591507311
-1.5632390066615407
-0.650072932186607
-0.6540171585247582
-0.7143263000613662
-0.691587825094036
-2.5035783548464066
-3.3251438544606216
-4.158302693089455
-3.2294622695920467
-2.3086769236529108
-2.3080049283347326
-1.388583225716695
-3.2021035036113217
-4.035099251572436
-4.873918560669891
-5.652452483278626
-5.580798695939703
-5.572129527500708
-4.699491518760541
-4.67005171384406
-6.412756300411225
-5.465226337167605
-5.386686456272616
-4.47109835892785
-2.6451175601760175
-1.7412362500824758
-1.747298163017734
-2.662713384009059
-3.5055989760533803
-3.429335363042269
-3.425433559012425
-2.500427203003968
-1.5916553659444812
-1.5295045273595334
-1.5258572202507104
-1.5538437992975402
-2.461460649500629
-2.398393954514315
-1.4865657118849884
-0.6393241726333402
-0.63531465645384
-1.5099064387662025
-1.500048791837088
-2.3653846548722397
-3.2118502468649477
-2.2920389879319623
-1.3758565480148535
-1.3749590122419924
-2.2856504079156883
-2.2683828500993846
-3.105354615749406
-3.094822225895866
-3.0246843710722575
-2.1062946974549184
-1.23085379059237
-1.1618596311401748
-1.1456534817230684
-2.0909701387192343
-2.9403486917781954
-2.8723492308809
-2.8761095726911727
-1.9555285998614584
-1.0210184564702345
-1.8405996155205995
-1.8162761663526032
-2.822493466154363
-1.9007214849464995
-1.844341010960306
-0.08488861600171967
-0.09614944444173075
0.7566963356935538
0.0
-1.0008590206323338
-0.9969513305775554
-0.9320138599179473
-0.08734272831517466
0.8184886104200264
0.7599079125496249
0.7690668993808906
-0.9944533015179887
-0.9868556280499536
-0.9195180423650359
-0.07354117093373654
0.833740803125155
0.7742256864031882
0.7831256371523778
0.0
-0.9744384914483946
-0.05519088846480273
-0.06483590138664606
0.7074717978900172
0.778107362318432
1.638756821342334
0.727799831386875
-0.11653277324916249
-0.11599259114373835
0.6777159871709032
0.6742488339039672
0.6895821553710795
1.6337058586010929
0.7225588612150949
-1.0371400661333927
-1.0262477205813956
-0.1018423393681507
-0.10415521113629823
-0.10598226657577214
0.7482888479410296
1.6070731011258101
-0.021323190172005513
-0.1128748535811156
-0.09314318350593279
-0.10101873202208089
-0.10723308904989504
0.7444238503166017
1.6039128921562276
0.6958622691545265
0.0
-0.1381447753716621
-0.14445154292000625
1.6180740183214497
1.604754501164384
1.5998120549563837
1.537512734081943
-0.2251185809900226
-1.0675245479294362
-1.9170840049310358
-0.9956283909453538
-0.992995923544402
-1.9039916894199913
-1.8863754367374284
-1.8654164075872406
-3.622203481116575
-3.5445745323700666
-3.4788412694330977
-2.5635933217957034
-2.566466016743944
-2.5616934955400836
-3.4039271263920465
-4.242809313666
-5.0840802902351445
-5.863634149530345
-4.942131981918419
-4.87284198708288
-4.864543892940874
-5.701336691246027
-6.536034072775872
-6.453464459337445
-6.379485177062113
-5.4608777319301325
-2.732376138682985
-1.421430431136114
0.6966345184831724
0.6864974230549494
2.4427034578002442
3.3320108345300086
5.063588171332822
6.791505875892853
8.457936380104268
8.363434155133133
8.284268768634384
7.290774530895556
7.287276533531783
6.356131343439987
7.19834292354142
7.121277102418895
7.906763219107551
6.925071972782709
6.015432646952696
5.103185513149719
4.184051510800746
5.03168550371475
5.022196753023586
4.949916434357366
4.889613527948475
3.9163917979805203
3.0114075339893844
3.0192072661282396
3.017276523931168
3.864766388601436
3.7904912796409356
4.641797298481648
4.57620066910893
2.8087931083929263
1.8943088035349678
1.8040938993445306
1.7412867926894777
2.7457473636169274
2.684232766550434
2.632015254309778
1.730170109213031
0.8224617232377216
0.6749426989056141
0.5930614038991456
1.7315744987380357
1.7284033141733615
0.8005969307614783
-0.9417365475604571
-2.693017088756141
-5.23124390078609
-8.627620461669652
-11.953375280120838
-17.03972686637118
-26.43585785919295
-38.29253233302351
-53.52826270393485
-72.92078878321657
-96.53099650528543
-121.6508414424976
-147.48269006413955
-172.3084091219152
-185.0414069417346
-178.68742279481955
-160.1428145743129
-131.34300379508375
-60.28343444294376
0.0
65.27464310242729
126.38532367660171
177.7490060810977
210.9721776834569
224.21397180172636
224.1811767586143
217.31263112845514
184.40895835296956
136.54890475277801
94.69443179064794
62.89749671468829
40.92311287764001
24.554454021996555
13.19512613859833
7.589144768948563
2.5135801982149952
-0.4485478244007672
-3.06729383171209
-4.8131104914092795
-5.666745920017159
-5.681740497828015
-3.922192592870702
-3.9272960386454994
-4.839286193921534
-4.820748710308861
-5.658126482930342
-5.5820668412099606
-5.5142067310724165
-4.592560445564174
-3.7294913631544735
-3.7241440408149065
-4.601244344179376
-4.5739847496050325
-5.407887793607957
-5.3319091875228715
-4.412684227307865
-3.493968427414152
-3.4865666602232466
-4.385950172628381
-5.278155478347511
-5.1830813885606
-6.0190174714334885
-5.087793433455721
-4.161136897109221
-4.153944210155243
-4.140750224177778
-4.123000942311104
-4.104178458663048
-4.9433453271075365
-4.868234276747846
-3.0907292751694415
-3.08684346066738
-3.077836999101243
-3.0645211209259484
-3.902157426312274
-4.739855372777327
-5.5813524494662685
-4.652038093667131
-3.7209198614801435
-3.7721190756647
-3.747795755312359
-4.5769736328190325
-5.412188090993096
-5.33593761458642
-4.415760398915376
-2.6438407822570045
-2.641079762535172
-1.5532199634837376
-2.4919920927720853
-3.5116743349391433
-3.438685338524767
-2.524037102998481
-1.612225575573886
-1.6142534574132765
-1.6428493263333488
-1.607040896815362
-2.5316752269759073
-3.3809630198636977
-3.305553534442941
-2.38501527471451
-2.3862974409093995
-1.5279318562384794
-1.514244305786446
-2.4155159164818563
-2.3943348386896495
-3.2351024357710743
-2.311722434826726
-1.3953114672263096
-0.5205389227506995
0.3122927496065079
-0.32413712279372536
-1.4380153962312452
-1.4280569243149182
-2.278296399070886
-1.3582224347219156
-1.3589306075125107
-1.3497638258434055
-2.2501452277008194
-3.996686751164522
-4.824256066151149
-4.737592391744808
-5.579329426648003
-4.646796296746962
-4.633257445777472
-4.6136947353626905
-5.4442030261918335
-6.277089873575576
-6.195759686755844
-6.1233855722518316
-4.3490313124957
-3.4269197762086563
-3.4206010526778483
-3.4084535812851144
-3.3978805463252706
-3.327298977500329
-2.4136244131926534
-1.5056451230142889
-0.5941187129784641
-0.4781787395067338
-0.48080817245592167
-1.5008978271887705
-2.3457070242425693
-3.1942240935468424
-2.270362539390892
-1.4139945543492847
-1.4052191149782884
-1.349053672182281
-2.237397839143994
-3.1276195302148486
-3.0559754514695103
-2.142193183190136
-1.2305453386639313
-1.2326104318455777
-1.1040371810900327
-2.1292980603976654
-2.114153915279039
-2.9587958848460407
-2.8906457610279204
-1.974160419548653
-1.123673893721895
-1.0689445452511366
-1.0228534558532143
-2.869930261762742
-1.9376282216606693
-2.789690992150647
-1.873716165997478
-0.959830669177071
-0.9603420740237057
-0.7771756730032582
-1.859098261942027
-1.84965910930674
-1.7783248927576385
-1.7819215525390077
-0.8658439205197878
-0.8700953587300508
0.0
-0.8606185334132861
-1.7728768902343228
-1.6981016996250682
-2.5521240706211303
-1.6332001460641437
-0.7811988534596022
-0.6887860596813757
0.08729806106191322
-1.5963097692935377
-0.7249112804445235
-1.6046625540855133
-0.6950667853690466
0.0
1.0566691374208768
0.13778233262802933
0.14927188962180732
-1.6146993972480037
-1.539996728868571
-1.54203134417021
-0.6254757346296644
0.22455432695228575
1.0826269694844821
0.17147857019004992
0.18190284644909616
0.18268494117073011
0.054177646901378405
0.9278206397653865
1.9759943966643019
1.9676145427599387
1.0501057556565152
-0.7119431601620388
-0.6975371769099392
-1.5408892770376679
-1.536773582150655
0.2392425385241016
0.24260300096213505
0.18321686318170652
0.19275093208777616
-0.6585234517169879
0.17847901729474075
-0.6106798932043909
0.0
1.1413275655809676
0.22208009240086826
-0.6187575926234339
-2.377479549299393
-3.2169780370663643
-3.14153459868929
-3.1396693584293187
-2.2146922042103734
-2.2046015541831
-3.108406342797281
-3.0294823703950002
-3.869876925231506
-3.806756232961278
-3.7507004798398724
-3.6936445844332884
-3.6964990395698316
-4.541043887838754
-5.37598594578906
-7.0597155056475165
-7.894118001088542
-7.747295516028993
-7.675998695876936
-6.75113133563474
-5.822176852683659
-5.811792167650723
-5.735030593620037
-5.668239463662947
-4.691179573132519
-3.793171372031769
-0.9656222592086001
0.6254512069105169
1.4623168356396055
1.4522308489348037
2.2929525849264643
3.191440860529013
4.93098846924762
7.518624087927439
8.33540128039423
9.094487462717378
8.155618611838449
7.218942704850665
7.202714187060161
6.262623574048646
7.101170288281469
7.0273393686547125
6.044882028822288
5.994242806396629
4.167855569425177
4.176253051338008
4.170945351927808
4.156892533222882
4.995904283521798
4.919897694941438
4.853355133852078
3.9393478417825403
3.0247434648218507
3.025468517960399
3.0178805399972
3.006118791244264
3.8506937982489484
3.7817242733737206
2.86790647370694
1.1029235430081583
1.0384857253682869
0.0
1.0701651385407487
1.9575190368873898
2.8127180752141143
1.8995883280300503
0.9884716522194448
0.9910289251043263
0.8462994658496481
0.8023249555888945
1.7322502859752835
0.8702184106749608
-0.7543830483628461
-3.363505158908284
-6.754122939570094
-11.849814961177637
-19.500310054414904
-27.9201122097329
-39.791382957848356
-55.029572099533645
-77.03833427407272
-102.32792614416525
-128.33436808588388
-153.2818594248101
-172.90786801225408
-177.7686453207963
-167.11259852080005
-148.61664158294994
-117.8395791702529
-52.95971994375515
0.013108693579936936
66.45968854055167
125.77023883094296
173.4410775048431
202.98108866193937
212.70850967306546
213.68104586305677
205.18886558169564
176.95673376849197
134.54462594167143
96.26463344298637
67.31906832390344
43.48165744878717
26.3925244506426
13.773920531983977
4.859738851457817
1.6763175461395303
0.0
-0.8465930207669979
-1.7396606302774003
-4.430194394975701
-4.36934645778949
-5.241729046368519
-5.195841803602515
-4.292774801511708
-4.299064174644227
-4.288052031386758
-6.039692066333947
-6.867242026134077
-7.6343363534478
-6.704367266459881
-5.780415214904844
-4.85575168098701
-4.84679950145533
-4.831718120781057
-5.671408057321544
-5.597840814710804
-5.5363430489882655
-3.7048090203578345
-3.712933031785127
-3.710354645901927
-3.6991861174029514
-4.537285753786724
-4.524661605500728
-4.452035675833918
-4.387992881489596
-3.472037380257396
-3.4729494753137344
-3.466257267612246
-3.454798088551348
-4.297227870891428
-5.074499250568078
-5.071540642295029
-4.15067168169471
-3.2307798450471763
-3.2277675668140327
-3.2179538742113993
-4.912195442056659
-5.756723894193646
-5.688957551561976
-3.8520453688755922
-3.0022209742911485
-2.982643441622127
-2.8954066498812634
-2.8689839472305314
-3.820900616736011
-2.841694442492655
-1.941740568592739
-1.0404238474290965
-1.0499745362429935
-1.9677911833689066
-1.955472889139915
-2.7961779186776736
-2.7888559573717018
-2.7218384380824627
-1.8067040580773805
-0.8993551462097003
-0.8342789405708311
-0.8221997555579338
-1.806336135299032
-1.8064691154867714
-1.7434191643049222
-1.7531540099106355
0.013541396078697523
0.011214189935897487
0.0
-0.830977925956677
-0.8863016164315095
-0.8322024264355515
-0.8450442903153381
0.0
0.0
-0.8619947013486464
-0.8496997449725427
-2.612318565955305
-2.5353978993197934
-2.5343986606208895
-1.6147194352552205
-2.469731948402784
-2.4663163117759104
-2.4586276674063092
-3.3027850071099816
-4.149960621513306
-4.081000020893872
-3.1615736247227555
-3.161926747338889
-3.1597862086464046
-2.234718818064909
-3.0845970437158594
-4.789582952069369
-4.7249404117351546
-3.81223131008825
-2.8982958253460462
-1.915853528472661
-1.791712846097221
-1.754970675836104
-2.8770629405804264
-1.9654107977665718
-1.0002048974594042
0.745521138296851
0.7230405170616846
1.566785317866158
0.6451694680348647
0.6483486145888161
-0.20797796227890522
-0.14992141119344982
-0.1655256059303608
0.49638625711799306
0.6704575098221601
0.6765515477084494
-1.0870122520860304
-1.9286364059538836
-2.7781555350366505
-1.8621020567162623
-0.9510407472145672
0.0
0.0
-0.7369309198748325
-1.8634095163497586
-0.9478976842571801
-0.8977370024595773
0.0
-0.014869848886673236
-0.020141103803858487
0.0
-0.8901013429515114
-0.8837334466245244
-0.8609418771838625
-0.871756326452156
0.8900276606824102
0.8771246382030604
1.7224456821483858
0.8659133689682565
0.0
0.0
-0.010716692222514215
0.7535366109528955
0.8287899532898371
0.8178221997007268
0.825346628525893
-0.9434094319040999
-0.873997639133672
-0.881833197671174
0.0
0.0
0.863833973422733
0.8652556537673955
0.0
-0.9037471438502509
0.0
0.8506230541140113
1.7466830691242803
1.7331565862551601
2.580362164808161
1.6573744702028805
1.655618681142783
0.7257265443426681
1.5855477860011813
1.58629992246808
2.522465749577621
2.450586709923135
13.546386046116535
11.764285899117656
10.887862135684458
10.840955595956675
10.839866263242396
11.611327279665339
11.46665637991929
10.418507964349239
9.50251031861518
-3.0731291827351597
-2.05687712817655
-1.0758253929016106
-0.04712998723583201
0.7427214521481305
-0.024288833297708257
-1.027183415928253
-1.0309904480281797
-1.8934317089388242
-0.9830124363632919
-0.9913643523107474
0.0
-0.8588167884120109
-0.8671589694578884
-1.8852494376281463
-1.8190574551752219
-1.8282443357366422
-0.9172248070169613
-0.9245383512153224
0.0
-0.7404328875396423
-1.8214454885526352
-2.6702005891726452
-1.7537177017210581
-0.8436924989849721
0.0
0.0
0.0
-1.7686808841637238
-1.764088954348469
-0.84803494656143
0.0
0.0
0.9008655485538037
0.8363144498886714
0.8406803366826725
0.0
0.0
0.0
0.0
0.8648332046007905
1.720825576161743
0.8112319115548947
0.0
-0.9414519049631805
-0.02723092169234437
0.7059906301650513
0.7249771595825031
1.7051320659907003
0.7876044269692343
-0.9754104927115949
-0.963745579095489
-1.8130930092379445
-1.7469991234739923
-1.7505853887816047
-1.7490028865045826
-1.7391692815645685
-3.4981566052296613
-5.188550032721988
-5.108427518290204
-5.955701498707073
-5.88435604147254
-4.958645329795088
-5.801380532551064
-6.636580308809178
-8.324879499189237
-9.099132870779831
-8.107555950178174
-8.042031013549519
-7.120376343779014
-6.192716129879532
-6.182629511493223
-6.106308765560641
-6.041447030020448
-5.0693356316380145
-3.254375636110756
-2.3627454630253015
-0.3381996052027332
0.22967184131981344
1.0769853689992939
1.921698794597542
2.8237201772280196
4.565428487833628
7.152080434959725
7.961975101448736
9.631163553285786
9.533680471595066
9.444211474658658
8.504755251133657
8.417708863842
9.251856325919883
9.169107337958176
8.17419918865653
8.110439127983886
6.275740163532595
6.2161854750300725
4.4435030056342475
5.294972900209871
5.224230415369987
5.1576776885847835
5.095193826527188
4.181300634259557
3.2651783630546896
3.2658965954716708
2.337346171410762
4.1033078234907014
4.028778312313174
3.9635823068179303
3.904286069626486
2.990420828976403
2.1378116795535793
1.9974032255290883
1.9232936895014796
2.9626768483112387
2.8949250544049
1.9850448836302126
1.082200605118523
0.17802601136436533
0.18538770714539674
1.0430438189999829
0.9998780134697287
0.0
-1.534711398639877
-4.148500613204372
-7.542170776854434
-12.637175460081497
-20.28041930598723
-29.609372990142333
-42.32064020235407
-60.11086617065885
-83.75246747445857
-112.44623804456184
-140.9911067923271
-168.4605087733104
-186.32334975252877
-188.55509799404027
-176.9787399991079
-155.8101403307847
-116.27549105017393
-35.24764404188165
20.649157992494693
91.41130545498149
152.46213016262695
197.278001706387
222.2162298381492
229.2196143423416
225.74920375146493
213.62526953938055
172.7753267040788
125.03401227653525
83.8836602382162
54.72169700116249
34.31941752534832
18.128398066047865
8.605795292026903
2.4023507797001797
-0.0010460999311598385
0.0
-1.7978433814047672
-1.8023170217695368
-2.7386424018731437
-4.529494103682965
-3.623732156546466
-3.6402964496759456
-2.7295558020946213
-2.7301179093485457
-2.786967505008212
-2.7692653527158178
-3.6062724798317403
-3.5952317406160206
-3.521324532239105
-3.51770362687315
-3.510893824620142
-2.6457147602532585
-2.627427821286659
-4.3804346984424
-4.360883286915167
-4.280940534975498
-4.276840229087281
-3.3530082200236864
-2.4949019252449802
-2.4820248410747467
-3.385413179272936
-4.222183527494703
-4.144333899342298
-4.141804467224404
-3.2192498009089006
-3.2152939766488426
-3.201526019850266
-4.101233586458893
-4.076855610108547
-4.912811195378225
-4.83661315535135
-3.059642884096955
-3.0573640129876716
-3.0505637708100033
-3.0397031679162114
-3.879827689275625
-3.8666753674948895
-4.711375523231298
-3.786173778056352
-2.8602591880982176
-3.771101265846676
-2.870603355397023
-2.8466476503306217
-3.7229540889741655
-3.648348096627964
-3.64840795416962
-2.7284257653440953
-1.8749031662350997
-0.7359944310682176
-0.7823818253266184
-1.791156183075022
-2.7499351287427314
-1.8295024285902248
-1.77054913055222
-0.9246787518417791
-0.9215882217838298
-0.8360683954202676
-1.761384830504279
-2.701915834348687
-2.688029360517282
-1.7620119265432768
-1.7650475449799141
0.008399051893687127
0.0
0.0
-1.8069313691678113
-1.7980199893148534
-0.8751209116908203
-0.8779190752477766
-0.877755805480372
0.0
-0.876982944280832
-2.6733956237484673
-3.5092128997456418
-3.4306731019797017
-3.423656300515052
-3.4139094587045884
-3.39883894783842
-4.229292646322693
-5.9759047302729975
-6.802684909908013
-6.717147176696256
-6.640136763875925
-5.710438359114753
-5.69697596390326
-4.823636496987697
-5.6576424895009945
-5.576807970324736
-5.506018849275895
-5.443275715621153
-4.530885324727494
-3.615240110295714
-3.6117081256909236
-3.595821854164865
-5.350429817059295
-5.266127725104176
-4.339529512864971
-3.4211036029831017
-1.5907847571592013
-1.5417634964243088
-1.5485639869246564
-2.495878186557103
-3.346986267108989
-2.4295696281761585
-2.3688472711377546
-1.5179748517733667
-1.5094301662789997
-2.4135402800672376
-2.3920040733924925
-2.3799000251481672
-2.309540964761416
-2.2478399349919944
-2.256857216260813
-1.3386748728313898
-1.3271510254777
-1.2624957911459929
-1.2559862968889457
-2.218739728320289
-3.0672851294794197
-2.1495565049450467
-0.3833855232642228
-0.35518954824794235
-0.32944492157388233
-1.2412235646710412
-2.136543782849026
-2.9836710176774353
-2.064302695338007
-1.1486455883377493
-1.1484873225763663
-1.0108929661542505
-2.0449982186928866
-2.0310865559135824
-2.8773621641567932
-2.811003000248879
-1.043058709387786
-1.0484795768737527
-1.047230788912422
0.0
-1.9505221597945523
-1.0225910846797888
-1.879317850700653
-0.9674193418339754
0.7977584682528006
-0.015819654718735008
-0.013847427937287316
-0.03053377699283466
-1.8811750938490106
-0.9553047312378764
-0.959037242292916
0.8102877902878751
0.8078920320031897
0.7437031775622139
0.7500896640433118
0.7523219061355624
-0.10636423370990092
0.5889616951321676
0.5954099939711516
1.640173995120963
0.7216021007148692
0.7327919305556921
-0.0799454973400383
-1.0169294858173616
-1.0134271719610846
-0.09471550539515985
0.7542788629824372
1.6088585624508176
0.6931321402078819
0.7001423297603375
0.7020854286500028
-0.15745629032866695
0.48937254145432996
0.5129797965385109
0.5665801140845352
-0.1764296909478391
-1.0803915424913149
-1.9146845023995862
-2.752884023020724
-3.5969791429571916
-2.6699671912501874
-2.664845317663662
-2.655372117605319
-2.6421005462363603
-3.48124277287081
-4.324676545806048
-5.107941619763912
-5.044700931046305
-4.98037044324727
-4.975949847218909
-5.813560407417187
-6.642882366079673
-8.324244026099121
-9.089402167398587
-9.01154434040182
-8.01958266963553
-7.097533612229604
-6.169723822587722
-6.159256164346029
-6.082134412659246
-6.016041408148501
-4.189087677693633
-2.3732190449957256
0.22494177220022551
1.9741703136487898
3.6613688272587726
3.6447944035407573
4.4760656041894915
5.364113328568678
7.0962533266812
7.90650880020671
9.581529647227008
8.575010225977532
7.651428529528291
5.810544013013558
6.665030624785905
5.737789454358583
6.584058498168467
6.511518223631159
7.301252068427157
5.46808301365919
5.407976445317183
4.553121071766742
4.544175204584806
3.558616129780462
4.456788309838736
5.2417879154324405
4.331404916438526
3.3585393639736427
3.3736562514391317
2.45477662784485
3.3670879142870014
4.202674085297801
5.041670447491022
4.116609925810275
3.1335303096560354
2.2912121274998416
1.3268941488869836
0.100660574025802
1.2993159735823494
2.2385539841647724
2.1797510890101965
1.2724003446607413
1.2866165650133279
-0.4817087467176509
0.20863424778819162
-0.4275291633029546
-0.36844372807453346
-2.140858000610775
-4.748929945082187
-9.051084897499225
-14.983578149679616
-22.61581847791843
-31.871883677647563
-45.437881669360586
-64.01480124724533
-86.80069598607966
-115.48521713128903
-144.86937706473717
-170.61756523434076
-184.98896266754275
-183.8097280373116
-169.6257123455309
-146.72626051863577
-96.96973299964588
-15.516407812656581
33.85117885878945
102.8985868947881
161.20288352221036
203.2474032400473
225.38656072727258
230.61260093139398
226.31524562496165
207.06371346867994
164.46047168935002
118.73676358548227
80.74897126709372
51.524203064962116
31.30903531530675
14.369842478485454
4.9735590401049805
0.01689284139232014
-0.8627321940113624
-1.7081260100493312
-0.8448544380838335
-0.6516039546916973
-1.8169534487115637
-2.7676316586922316
-2.7238627856746978
-3.5958334571633532
-3.603463537436205
-3.5991122756189435
-2.7274544403184415
-3.618791135412076
-5.360115479033545
-4.410673924561504
-5.248830052677939
-5.175431356029346
-4.253382112415802
-3.3954872876593973
-3.3807582097499407
-5.133421803977929
-5.110313473284782
-5.025089726256445
-5.869667084730387
-4.9446181150632915
-3.166926816843742
-3.1569602030759043
-4.060197725653377
-4.894056137045643
-4.811750748532611
-4.8054783977595585
-4.736650298469665
-2.961551723394822
-2.9533795777519405
-3.856644538953452
-3.833954508720716
-4.67041544555067
-4.594603338620238
-4.525775424715175
-4.526110664844934
-2.7445763383244173
-3.6516407645269546
-3.6294569314848344
-4.460740766457467
-4.444906892936469
-4.371671400878385
-3.454836276361455
-1.68576646278881
-0.5885557041090923
-1.5305884988638385
-2.581028762616013
-3.425159507455392
-3.354026859429222
-3.3565674290747984
-2.435671291006111
-1.5740026181835236
-2.4735360532985973
-3.3642600903624156
-3.3413067843939763
-3.2634566982521336
-2.346452548625373
-0.5821992827106287
0.2624700716284593
0.26225408295541164
0.20084792297581266
0.20965453784328603
-0.6396677691858234
-0.6426772005661905
0.0
0.0
0.20787983307761876
0.15715464329227807
-0.674146787199015
-1.5752411856769528
-2.414965017225965
-1.4886214332462953
-1.4882851424343637
-0.6315218009968019
-0.6138267895455702
-2.3765139188385205
-4.129933110130742
-4.0447614382652874
-4.889233715640358
-3.960230678920357
-3.9492746627473956
-3.928145206951645
-5.67471826473018
-6.50030275439255
-6.4137512475653455
-6.338113688201761
-5.415287291476735
-4.491565723459107
-4.4832066284499525
-4.468101102212331
-4.453375158170175
-4.377580132848995
-5.164961577499503
-4.251251641127552
-3.3366161092394853
-3.3367189238750594
-2.3762171103521603
-3.311490277390893
-3.294063717190194
-4.136286932514249
-4.069179051770513
-1.382479266332008
-1.3924353235625602
-1.3937263191888027
-1.3858477411323802
-2.296172319551293
-3.0721508522697536
-3.9237516121127523
-3.0043650219019096
-2.082779442753568
-2.1144768744658267
-2.002583558074808
-1.9661237224281045
-2.946110290336513
-3.796034649545978
-1.962376940564604
-1.057083604580209
-0.10831428433900207
-0.06146433584807888
-1.978183272471465
-1.9640929466194401
-2.8095699308066235
-1.8889504284204615
-0.9737163193595947
-0.9773773905589462
0.0
-0.7853692985011831
-0.8204537919999508
-0.9488326058913603
-1.8082010653610354
-0.895398630898675
-0.04999044849971209
0.0
0.807988120434341
-0.9114721784286058
-0.9423971961485331
-1.7920303958306474
-0.8768975959172929
0.8864749938403558
0.8796093040677644
0.8139148535006085
0.8235931650956583
-0.9436200110382668
-0.019949850187565323
-0.027562994508121597
0.7728503185115079
1.7294738240160015
1.662274830141974
1.6705333943098037
-0.09573217190554616
-0.09205677218387354
0.7049322391508495
0.7040312367757167
0.7211423056514245
1.6635156690690633
0.7523838188789881
0.0
-0.997935965957179
-0.9282133899032394
-0.9311729556772245
-0.0793799644296813
0.7758199475185621
1.6366565299037485
0.7256809514358706
0.7338692643889242
-0.12266464110053006
0.604513031791643
1.4899323415039616
2.520525616059002
2.450957824097021
1.5415602700710385
0.6371315800126088
0.6501268265454938
-0.20152283483581246
0.44111125423039405
0.46970433409645956
1.5543577707213618
0.6407891301031992
-0.13104080555553585
-0.16222151812473423
-1.0935665466823812
-1.0918614335470826
-0.17441364426933542
0.6739148600473581
0.675092516448171
-1.092727677487213
-1.9356024418027846
-2.7802533661208875
-4.481919919245831
-3.5557906647560906
-3.5469657893691005
-3.527224786886909
-5.274374139310284
-6.0998891626748115
-6.013379071948832
-5.93961821285142
-5.8767877519430485
-4.041744500856943
-4.897943150526233
-4.890075348926885
-5.7316235209506035
-5.65415871029399
-6.4363383764811255
-5.516242735232094
-4.598279708038871
-2.723516918687361
-1.4176657524124199
0.0
0.6520213705700114
1.5565569181183827
3.297563507435809
6.80223193129716
8.460992287574918
9.274407844151046
10.029971938672432
9.087738051616936
8.149734509222423
8.064839889033076
8.902170208219164
8.824677891215277
8.692133689078306
7.7162745951640215
6.8122173350933855
4.981188776147439
4.983964679209877
5.8314505420502725
5.75718310370282
5.689611325853076
5.631416485652442
3.8044188268363333
2.8974774779053343
1.8481494682457036
1.7613600589600253
2.896498249759973
1.978607760881088
1.924763730446057
1.8781198912966728
0.9776253559943202
1.8440297059473802
0.9896109785989844
2.753444099793982
2.739684201973342
2.6624895113992224
3.5145731467655024
2.5980559158886436
1.6859390620391062
1.6954746054942778
0.7388875728379868
2.554946422075262
2.4867780856169825
2.491759823027716
1.5795944026550648
-1.0368733372236505
-3.586429679105976
-6.9899759136176325
-12.092960410429399
-18.02954568317229
-28.26987796238535
-41.03136185149309
-57.94957500551305
-79.94417702757652
-105.16511079403435
-133.6697056588676
-161.17558571253946
-179.07151171384282
-181.4663162448327
-168.20139944328852
-148.81704052306807
-105.37949154018436
-25.10999764032122
22.960597199225454
90.39139245818812
147.1778646053792
190.2998694141791
211.72631561649317
216.95535361410853
215.36160356705685
199.67332283766004
158.7979546627211
113.9439666902809
78.59566155244411
52.894049800142504
32.954613481877004
18.497175602741844
8.969280662642278
3.0691396083044604
0.0
-1.24394720925992
-2.1145219487876576
-3.87610435918392
-4.73623864354472
-4.7536754847138685
-3.8506075154467783
-3.8629398278827263
-3.0094040993877593
-3.8495866311618805
-5.602671446735219
-5.580637349328873
-5.498245310426685
-5.4209419907795615
-4.556164866344824
-4.538019814312305
-3.645507090215298
-5.409278700615379
-5.321878013086817
-4.390682826427518
-5.241677775998491
-4.320619287507459
-2.542561332620034
-3.4517214285315108
-4.281909197215996
-6.0327221302356335
-5.94557899759431
-5.866111659004446
-5.004444814463418
-4.071680060025341
-4.0532461396576895
-4.948886313849323
-5.777639670470013
-4.842064637287262
-4.7722989255699195
-3.855624654239601
-2.935339170004694
-3.8489694615426737
-2.9565218609873756
-3.812805279841784
-4.650533464472952
-4.571472955207511
-4.565754022026627
-3.6387926240580692
-2.7774287502864348
-2.7630709359402092
-2.7428155529479135
-4.498517468449072
-4.418927667053837
-3.4976609238050815
-2.58052166673454
-2.580620547836702
-1.6904727978443133
-2.5670732370133207
-2.582011212331306
-3.435926918345642
-2.5108242298384535
-1.5933238560896192
-1.5975460355015392
-0.6820735099705342
-0.6839995061018362
-2.4925439665161244
-2.4755056141682155
-3.3177298874878485
-2.389891425443439
-1.5317381100697829
-1.5231090387131245
-0.3930989532930489
-1.356415212899992
-2.398753028816909
-1.4723992477178647
-2.3296956271138334
-0.5599949314468319
0.2929078651635802
-0.48499076607800623
0.25073232302076764
-1.5062588130177037
-2.347151145530638
-2.275628596522255
-2.278491490744817
-1.355434663043806
-3.1179332286467485
-4.013091975831257
-4.831945169464655
-5.7206936903899175
-6.481321604221052
-5.5463700787308
-4.615750023493506
-4.6056618893800145
-4.593904356319419
-3.6610085917399022
-4.506645627494799
-4.43365723842791
-5.288884657531541
-3.4493765859618906
-2.597346122390142
-2.5901017648071125
-2.548954637944989
-3.414268830331219
-3.403200984236319
-3.3335054892571225
-3.2727176129041804
-1.5051434813711297
-1.5038265643512274
-1.304623071218858
-2.395973906726812
-2.382778636051733
-2.3084007576810794
-3.1640116344832894
-2.2489188364714905
-0.47798151165285785
-1.3773385029924496
-1.3269662948257148
-2.227107779485351
-2.2023376000432244
-3.052966010240002
-2.136264689585047
-1.2220992379278528
-0.28914515402120333
-1.1410291052668624
-2.1191312829084343
-2.958188163572508
-3.8031517588441375
-2.880896360263573
-1.9624639138823723
-1.030219060811866
-0.9460906227952486
-1.8390564889049952
-1.8589951531908462
-0.9882368019121163
-1.0086396311274999
-0.1038712481678308
0.7360302795740229
0.7323389760070069
-0.07382116295072794
-1.0276946970048677
-1.018055524702334
-1.8641881267247968
-1.8610024460963386
-0.047947903916853316
0.0
-0.8693247476664234
-0.8765347360927734
-1.824418016708273
-0.9036004852083935
-1.7644815293775107
0.0
0.0002654298872908564
0.0
-0.8916498463591155
-0.891963870160936
-1.7420908413038774
-1.6767921321911448
-1.683554079608275
0.06249949812285518
0.026134091388149344
0.03998584526417664
-0.5544768629500646
-0.792749576402142
-0.7975104397082222
0.0
0.8989487970906661
1.856033977949614
0.9373906360922276
0.027980578193140794
-0.8130698905483497
-0.8079969417288457
0.0
0.0
0.9583799309613826
0.9622839152956579
0.04904016951751566
0.05737745626689267
0.05833258967725943
0.973916914854296
0.9643531792621882
1.8106467902619456
1.8087905752051434
0.8899079740894598
0.8944128037407926
0.0
-0.8098399593641148
-0.8090807591721739
-0.8054511455343275
-0.7952686862872542
-1.7003710792148383
-2.53408976464332
-3.3703879907797836
-4.213064708660915
-3.2884376364329526
-3.221101978251849
-3.218478539049931
-4.062144014370082
-5.7541383133643125
-6.592428827478773
-7.366291105117174
-7.290467263467604
-6.359452306345771
-6.346115598875473
-5.407035179151279
-6.245289726081008
-6.170445357444111
-6.040486985977253
-5.990230645535806
-4.16828452975937
-3.2629841181980805
-2.2149017666678055
-2.0832137361292133
-2.0472809556332408
-1.1607359108745077
-0.3090989046460639
2.0936589070180283
4.685380812368631
5.505872856994638
7.187988470415864
7.099306763001962
7.077537749796327
7.049494951225599
7.017412550553435
7.842107379373857
7.757450157909981
6.767174875412681
6.712534265966845
4.88817404295959
3.982010752090173
4.839202856675217
4.831445469214424
5.673614301370674
5.597816794067151
5.528965573163467
4.610858861242454
2.8383513278321733
2.7669321886576093
2.710024864370482
2.7622138206377027
3.6186633907539836
3.559710981443975
3.5062839085636375
1.743076679457986
1.743670300429238
2.6531337778338715
2.5776290728153866
3.475267184674391
3.4049814310414734
2.493267083658915
1.587852379478685
0.6786508592534145
0.49229436017120953
0.4721322124504749
1.5921314537331468
2.4447687921958696
1.5304852547295196
-0.23176810572228018
-1.926625874040517
-3.6259840320812753
-6.182498614640728
-8.66740974093844
-13.764847564885931
-22.315419829138534
-35.10053266911871
-51.19908486305904
-71.46076781009253
-94.16459976604212
-118.50629633508947
-143.54747348607827
-167.5767329278205
-180.29915223877242
-174.8646902002883
-157.18644128920968
-129.88445007519002
-66.11297006789253
0.0
57.07395896965945
115.55076575660512
165.1621434688692
200.1928003127322
214.3755374944137
217.02322123375345
211.9885220171415
185.46452914343246
141.1832652668887
99.22215940042139
68.43581654001608
46.313080257060875
29.219835073986417
15.72287419107258
7.117879201585622
3.2873573141208605
0.0
-2.2989149242731868
-4.04033415286137
-4.892626935483193
-4.906853516000738
-4.924969078137814
-4.016282110858121
-4.016980155722239
-5.779655108364819
-5.763178137922267
-5.684586586145683
-5.61354644368238
-4.690283505832669
-4.683992482167471
-3.8171301479242876
-4.653265635983513
-5.49043422047216
-5.409560550670431
-6.256096280487837
-5.331402240930232
-4.407012402833717
-4.397748177030466
-4.378314725258217
-6.1307476412552955
-6.044987922645774
-5.970449506626688
-5.903144313571946
-4.128826094913254
-4.1236044444146
-4.110226011609204
-4.092714754278301
-4.931774374184931
-5.711337837954835
-5.646864738411744
-3.8790357498973083
-2.9586527199778883
-3.870292687580405
-3.8498997260770937
-4.681433451482298
-5.519574962592305
-5.449520028555558
-3.6156131430556013
-3.5553130411384735
-3.6196391905595
-3.6041679088606196
-4.438496412416068
-4.4226658575706095
-4.347569750755386
-3.4289923494971895
-2.514698015244993
-1.5676377312772558
-0.6260919952689274
-2.51866669755398
-3.365983101748713
-2.441992104032336
-3.297859086140855
-2.3782509983524527
-1.5226093173095665
-0.299714005285701
-1.2220453728859386
-1.299064580870151
-1.48232386921321
-1.4246859874552225
-1.4408190464341106
-0.5332726904851397
0.31546291412169236
-0.49649792050761893
-2.3507536357601033
-2.329871140548254
-3.171251939099994
-2.2485526573774433
-0.4703560112655386
-0.4191838586291762
-0.41006577293904867
-1.3370393981270017
-2.2395153891980177
-2.1704239682881696
-2.1755563599467287
-1.258682658649878
-1.2572138520782252
-2.167843191745365
-3.00437443805963
-3.8415020500532773
-5.537005428732222
-5.463607759671627
-4.538766133453398
-4.530571170588499
-4.51410061633554
-4.4927037984192735
-5.327251143416763
-5.2500453797906
-5.187668812022632
-4.2139026651858025
-2.455459296457913
-2.463170541900979
-2.4335297431453142
-2.3651580169562267
-3.2973089882060402
-3.230118189277194
-2.319529013019211
-1.4140303416920736
-0.5041343928351114
-1.4278304230461314
-1.396426928836911
-2.2655169316874515
-2.261207717849647
-2.1963159420945235
-1.282686776506693
-0.3176182456558838
-0.25380000104643885
-0.24280007869853154
-0.2629501593806573
-1.2882692572576397
-1.2273067363876113
-1.2393478656224226
-0.32832673002041435
0.5213271775844267
-0.15373168588540478
-0.15103985015136537
-1.2297238646314577
-2.082524271906762
-1.169589468852741
-0.2618837202710614
-0.27243083085917735
0.5807084547366808
-0.020024499221209937
-1.1767323788069732
-2.02726810856829
-1.9656439833598351
-1.0562004252788202
-0.1956887705138247
-0.08420488290334913
-0.03045567279776809
-1.972206769711796
-1.9636127615600658
-1.8985251932101572
-0.9909444436474281
0.7678730102704819
0.7585176805115884
0.0
0.0
-1.0126237878385205
-0.0976995726207201
-0.9640337907166189
-0.05484391702981003
0.792331993962494
0.0
0.0
0.0
-0.9668056196586846
-0.05278730851736502
-0.06709644802224878
1.6932069515737782
2.5364535470404324
2.464805100984257
2.463415153101287
1.603832611387942
1.5896986121237155
1.2950494760716134
2.469767558737727
2.4579577244664415
2.3913685525860418
1.4833924545239485
0.5779894928063388
-0.2670528558345702
0.5270315851793399
0.5400190207536073
1.4863168815371797
1.4709248053955206
1.4724691004778374
0.5565553005832417
0.5616830088377295
-0.29437761582869837
0.4429841144535956
1.459057246186527
1.44962507424639
2.299621513887239
1.3792463574531535
0.5280703955000892
-0.3273243209887554
-1.1884391547383055
-0.27663521942434377
-0.28136337080724194
-0.18822292652809428
-1.1808401549161363
-2.936439291750448
-3.7747767805089545
-3.7032854588957327
-3.6422572261226698
-2.7292885429236096
-2.731204649355494
-3.5751007749780457
-6.188403988246819
-6.960141081378735
-6.886149129362218
-6.817262670232995
-6.748979579884379
-5.821731194160727
-6.661643611738956
-7.49849493981875
-7.421598957605593
-7.290734589761081
-6.316624919660965
-5.412728996208673
-3.623104643400575
-2.5025853337318313
-2.4059589339220033
-1.47508971342297
0.0
1.673850728045488
4.32776339846013
6.909321938153707
8.574937182567389
8.471298334950694
9.290021088099909
9.25151631166603
10.0663488094844
9.964335386321466
9.871593978322414
10.644426145820914
9.654560595000632
7.818581209712004
6.903058682534712
5.979811867704058
5.972414754664731
5.896213308946247
6.679649938067956
6.6183227650125165
4.787572319488148
3.8761597379948975
3.875433343729672
2.8252499949488024
3.8451513373401602
4.684676426803969
4.615215280526101
3.637018656757043
2.730281262893833
2.7374250562143416
2.732503129485105
2.716491015123247
4.472265076225697
4.390197202507575
4.319850897388998
3.4039675277980384
1.6356424332025954
1.5480226333869394
1.4939444829085389
1.4856675241156803
2.4756573911104187
2.413177335064094
0.6526364932982905
-1.9599182697302309
-3.656940421897125
-5.292330532050361
-8.701519622073953
-13.804034920648057
-22.295094711830536
-34.2330522828888
-51.25353209037246
-72.36513864287285
-96.7718062001817
-123.66789160611825
-152.11243425455925
-176.12410809375166
-187.968010453468
-184.98985120964494
-169.89302757826883
-144.27873438127477
-84.24847621785828
0.0
57.675134932182544
125.77787337633471
180.46034174633957
216.20088685197797
233.09792716752378
235.71862097783446
229.71705249908544
205.8789455726366
155.0834134188554
106.72031323283372
69.01239853963357
40.63557184465432
20.90644077010058
8.642783710176914
2.109294766549584
0.2672692458126689
-1.622648708215663
-4.251185565913502
-5.1547144561344656
-6.022294020770618
-5.1336551326284
-4.251368468486862
-3.3617855815964135
-2.5235172330349127
-3.44395769179476
-4.289232365761286
-4.214118173903765
-5.064498434371285
-4.13998252378002
-4.13445638011282
-4.121271638701858
-4.098866956187097
-5.846000103503204
-5.820761577435296
-5.7385506699079505
-5.667277305258754
-3.8924197923941612
-3.889524080269628
-3.880475525160555
-3.8679464646084667
-4.710480034428059
-4.635446089561246
-5.487592118425678
-4.566857860706208
-3.64236625425427
-3.6986511573079603
-3.6783519525424153
-4.510921912791531
-5.349224577272702
-4.422707105879906
-3.5064569699448165
-2.592820953829537
-1.7077857267280117
-1.68907431444409
-3.49590587243082
-4.3370456730372435
-4.265043868044336
-3.344984070594567
-3.3444493120802274
-3.3360117198307115
-2.4225705048239496
-3.282026515784361
-4.196732480201104
-4.121302120217149
-4.05797777879472
-3.145268079638063
-2.296927354861983
-2.2930343609471557
-2.278920577415208
-3.1806418990644554
-4.017546509523471
-3.9446599016545374
-2.176168225363064
-1.2639975378442532
-0.2382979413828897
-7.852733132311662e-05
-1.2741691249435492
-2.1639497908997423
-2.16342324340506
-2.102583699636793
-0.33533594847169934
-0.25762371548263174
0.46191311518370687
-0.07064183322999368
-1.1149893744107864
-1.2711565816280006
-0.3580839879000804
0.47963337441772724
2.242103375472659
1.3177931981038769
0.4069925524079897
-0.47878165994450544
-1.3387630455200619
-1.334633375616744
-0.4143649751934755
-0.41295357830197443
-1.3226950224827554
-2.2241840182746886
-3.056056504579623
-3.891582916510937
-4.732647268035489
-4.6555157985013995
-4.645817350273975
-4.630536268039815
-4.61014281241444
-5.440844681152369
-6.274810836156025
-6.195210353806738
-6.124979530412505
-5.206244481661066
-4.285648201116627
-4.279794256808929
-4.266856996162807
-5.107416957888175
-5.032706707069195
-4.113662142536423
-3.2007518446902417
-2.2877855674571443
-1.2532218207783652
-1.2361248830791463
-2.2824027072512934
-3.133704171295227
-3.070006248998648
-2.1565084354790955
-2.161176093811036
-1.2497388550522146
0.0
-2.1018239552228404
-2.14679560057631
-2.111801286383698
-2.056321785545818
-1.1516373062309306
-0.30997998565914675
-0.28169543667316266
-1.1473631803327753
-2.972954778211753
-2.8902457307276332
-2.8861853761889122
-2.821971075777402
-1.0533395664265428
-1.052876541548484
-1.9305086843910746
-1.8950721739415817
-2.795885055739528
-2.728815114859823
-1.8153509807850308
-1.8251035395192867
-0.9071741860080631
-1.8247836089597276
-1.81331896044565
-2.6551077099418845
-3.501906146795621
-2.5811745045824113
-1.6650586252466353
-0.6665298979717708
0.039053849390820766
0.04257714008922732
0.04474300312104609
-0.8136625529145479
-0.7601222924253506
0.0
0.9782589910967932
1.8268613428994023
0.9134146793985572
0.00783724974870495
0.021596204699341755
-0.8295879730101037
0.0
0.7923171420451843
1.828159277377297
0.9075018873888746
0.8494173027962287
0.0069862475516908
0.012273410235676825
-0.8431882828303867
0.9160078056065257
0.9134021386450795
1.7635195863200168
1.6988097027451565
0.8534688331363368
0.0
0.0
-0.008120058595826679
0.6521501199013873
0.8311273522344514
1.6913783109382745
0.7836076580287834
0.0
-0.05152931532968276
-0.059058493642162285
0.6719104097592994
1.6879706293791363
2.5356471994549983
1.6186889724879352
-0.14536610028815253
-0.1363123852111526
-0.13622665035782214
0.6628055599505667
0.6785292700261933
1.6212341364352607
0.7077338517380221
-0.022605143031928385
-1.04622939313333
-0.9778147516407054
-1.8351007393498902
-1.8365569153807526
-1.8325593107974067
-1.8197294936247872
-2.7210282590113914
-4.405180863939068
-5.24209955383486
-5.166992401074009
-5.100243385246113
-4.180181322221875
-5.028372744547507
-5.013632170655831
-6.7009517949741895
-8.392086210693602
-8.247949854641044
-8.178738790254334
-7.255213044264731
-6.326158311885925
-6.312831206593433
10.836976714304068
9.974346726690351
10.920078004992597
12.678023187601502
15.256020846254751
16.04187273038186
14.830321891444239
13.378233622865832
12.234783736844214
-4.980869693353507
-4.775982283219723
-3.752511831947515
-4.530519402179576
-6.248613693815676
-7.915991528384115
-8.679698706465153
-9.456611654223801
-9.385542802831907
-9.31323310242458
-8.380544915222146
-9.216390139232098
-9.982384534040474
-9.90258118281867
-9.766637082578523
-8.788656816233395
-6.960744609890271
-6.050437169580309
-4.0629545995559
-3.9236407847898636
-2.9853630585378252
-0.037474879163363714
1.0639621725135981
3.7172762666212225
6.298295858464742
7.961695566565671
8.77872964921671
7.824565798790051
8.646420021840358
8.615218620026752
8.521075718247927
8.436733523719127
9.218370967738538
8.237282488694952
6.408973281529346
6.3512390439254185
6.3517776748053825
6.274739238042508
7.116267866643751
7.038203951551895
6.968928277899333
5.13131447547031
4.216028343884383
4.218081777367474
3.294212285808418
4.146390236816089
4.080745373325846
4.021848123622653
3.966573085437532
3.0550200716914406
3.0568653986089998
3.0487721829198073
3.8883809502958693
4.729192248753764
3.802154737975683
3.7383386410529904
1.9738698631393614
0.9754580910906001
0.9203301514150294
0.9052203873520773
0.9164168655657946
1.018007080603407
0.11239346075262983
-0.7236409805240501
-3.3392572392360056
-4.969006100101985
-8.374897394793367
-12.62511657433039
-20.271133884137626
-29.59441491266033
-44.068520849252394
-63.55169785312114
-86.33218607401706
-112.39851908750813
-138.32143544740697
-163.23530315751384
-183.729346600071
-187.6742364574065
-176.96979011302207
-156.61801816767382
-114.00492907993052
-31.34485152806759
22.313483120006033
89.57450162979617
147.05762821797802
192.89210267463065
219.67092944969482
228.42925459242707
227.640364561069
215.3831215660137
174.41453821069425
127.5348154147803
88.57042155990135
59.371742952439064
38.39419687550588
22.065614907681145
11.627962236465496
5.756253225299935
1.878324169164133
-1.1260252477765285
-3.822119931515625
-4.65074909835497
-5.50828213407618
-5.525281915523813
-4.621477227468643
-3.7780951614849414
-4.6276622577206155
-5.536386480893799
-5.452613465064161
-7.148811086666049
-7.073615548791644
-6.1450482846433925
-6.13096155768463
-5.2517538497740635
-6.141909815078401
-5.190275630668616
-6.025214285096879
-5.953807567567697
-4.121702780675383
-3.2153268899623395
-2.3692220868205585
-2.3628595625625386
-4.120713736296538
-4.952386635946389
-5.789087665335781
-4.858554959890887
-3.9322553613965328
-3.9236944135612277
-3.051819372634976
-3.9336951119283867
-4.781113746964551
-4.7031599860883215
-4.636815278131615
-3.720767124736542
-3.722176071167326
-3.7137891604668765
-3.6941462551613773
-5.4424343702288365
-6.27051100053135
-5.333540971676447
-5.260359523633145
-4.336627790892939
-3.4774213018791147
-3.465576399952367
-4.304341542926383
-4.29260497901262
-4.219888492648987
-4.153174322933992
-4.156209640438953
-2.380029133101113
-1.2947078398541918
-3.2762393644476067
-4.112589425891489
-3.1801518462826435
-4.031672741778367
-3.114308611487136
-1.3443610298129813
-0.21930040620590047
-1.148503389203944
-2.135105194012644
-1.3175649177186497
-1.302943321799608
-1.3142084861528776
0.4127744228881628
0.4157730503156066
0.38329742961353985
-0.319085954474359
-0.4100166344581169
-1.3491523716770626
-1.347031729999104
0.40248710899205964
0.3992775004314805
0.3602808078471691
0.3727695016542327
-1.3879360935053546
-1.3755263097273889
-2.2242485567203825
-1.3022914455813737
-2.1522888740219317
-3.0607944996263208
-3.0372848615307566
-5.637673964308905
-6.463598963669845
-6.372798664910928
-7.208496141968551
-6.269827596135913
-5.40027642747297
-5.3145626941057404
-6.1509653425301
-6.139438313841139
-6.00211319354369
-5.942477977793065
-5.030429409010432
-3.2588980140648105
-3.251103492544848
-4.101131596451853
-3.1554512502296346
-3.148457911695296
-4.008258055124209
-2.1803135993667944
-0.42290012370167923
-0.3988171914018307
-0.11608856434531759
-1.3312227793413536
-2.1792637676139783
-2.175381032830969
-2.1119613875863266
-0.3452132419836649
0.5060594882434089
-0.1433723060657947
-1.2460518713333144
-3.0080269791921896
-2.934454435956382
-2.0163576260385825
-2.022321331164289
-0.18679840636649309
-1.0148065714142573
-0.7355679835828797
-1.9686403321776922
-1.118752171095669
-1.0632784448707029
-0.16021013298083092
-0.17541713711404883
-0.17936699085447175
-1.0934358055591407
-1.0767215880320897
-2.8350133993253914
-1.9007729196813636
-2.7501943091748267
-0.9748063033234958
-0.9704194818034513
-0.9264609630580464
-0.912207715379047
-0.9156288021963307
-1.817257231520913
-1.7534849701274666
-1.760853207096124
0.001253127996845349
0.0
0.0
-0.8897025951321894
-1.737158552033812
-1.7383605328654899
-0.826494174697164
0.9357216547893636
1.783675877903442
0.8687724983332884
0.0
-0.8869038630223384
0.0
0.0
0.8386978319906596
0.9027848649397695
0.8571979852381759
0.0
0.0
0.0
0.0
0.0
1.7872461590706208
1.71283430278994
1.7158326773583752
0.8013086542909629
-0.04481215840796539
-0.042647926810486785
-0.04746649956699463
1.7191011550521966
1.7142656501029123
0.7981363865164836
-0.9643306436735977
-1.8057006368668522
-3.506912947860158
-2.583227111493855
-2.5791917704519824
-2.565324462232884
-3.463981096250067
-4.290680943409029
-5.976898104909271
-6.752446589181253
-6.686813565374831
-5.70280928157714
-5.70175311532723
-6.540095148817132
-8.221442480460873
-9.90074976834482
-9.813176759253986
-9.670915491795288
-8.683405358708171
-7.762875004593362
-7.6878506710757994
-8.529201544636978
-8.45161718724525
-7.463278490511952
-6.485189545897776
-4.728454727695203
-1.6436722931693402
0.0
1.3939086636279079
3.147390440963169
4.889144037942777
5.7645596961634284
7.484007144982063
10.05739555387895
9.94413187517798
10.700037142434395
10.616716873720833
8.767535906273965
8.696058308493571
7.765904214855437
8.607446813596322
8.530479575026414
8.393889956187715
8.333819781024758
7.353926222266582
6.437616609415954
6.433769943319529
5.500079132521789
6.340057606521987
6.262456997531389
6.1961668969699435
5.218124780531881
4.312435943117609
4.254501070100524
4.254363805643965
5.097538133944109
6.791065370516883
6.7124050290070825
5.786097330800397
4.8634459344058545
3.9403499102622854
2.7851436495984316
2.985868335292571
2.9665162719214355
2.959052586513675
1.9930775620813357
1.0974592495923667
0.19970889678769624
